 #              _____________________  _______________________             #
 #              ___  __ \__  __ \_  / / /_  /___  ____/_  ___/             #
 #              __  / / /_  /_/ /  / / /_  __/_  __/  _____ \              #
 #              _  /_/ /_  _, _// /_/ / / /_ _  /___  ____/ /              #
 #              /_____/ /_/ |_| \____/  \__/ /_____/  /____/               #
 #                                                                         #
  
 #        time                      T            heat flux [W.L-2]   in    x              directions   cumulative flux
 #-----------------------------------------------------------------------------------------------

   0.0000000000000000        4.8296000000000001       -1.9843366914511587        1.9843366914511587     
   1.0000000000000000        4.8303580005093689       -2.2180802921885787        4.2024169836397371     
   1.8999999999999999        4.8310048290962415       -2.4119074323117924        6.6143244159515291     
   2.7100000000000000        4.8315603504798714       -2.5740120417879870        9.1883364577395170     
   3.5200000000000000        4.8320911147866150       -2.7247484325906495        11.913084890330166     
   4.3300000000000001        4.8325988428581752       -2.8650080479384519        14.778092938268617     
   5.1400000000000006        4.8330851211646779       -2.9956089740912626        17.773701912359879     
   5.9500000000000011        4.8335514128344812       -3.1173021749174765        20.891004087277356     
   6.7600000000000016        4.8339990677486275       -3.2307771837474428        24.121781271024798     
   7.5700000000000021        4.8344293317811600       -3.3366673006274050        27.458448571652202     
   8.3800000000000026        4.8348433552594194       -3.4355543387977749        30.894002910449977     
   9.1900000000000031        4.8352422007118241       -3.5279729602624639        34.421975870712444     
   10.000000000000004        4.8356268499647168       -3.6144146367703125        38.036390507482757     
   10.810000000000004        4.8359982110604927       -3.6953314509783901        41.731721958461151     
   11.668600000000005        4.8363779180010757       -3.7753879820606278        45.507109940521779     
   12.578716000000005        4.8367658358237255       -3.8543608028745875        49.361470743396367     
   13.543438960000005        4.8371618371705498       -3.9320343092921166        53.293505052688481     
   14.508161920000004        4.8375437269899404       -4.0041941153287670        57.297699168017246     
   15.530768257600005        4.8379338426292122       -4.0750508316202971        61.372749999637541     
   16.614730975456006        4.8383321220045534       -4.1444317262348038        65.517181725872348     
   17.763731456383365        4.8387385219438936       -4.2121799136377192        69.729361639510074     
   18.912731937310724        4.8391303650353210       -4.2747044345960319        74.004066074106106     
   20.130672447093726        4.8395306642928988       -4.3357155947160750        78.339781668822184     
   21.421689387463708        4.8399394510000278       -4.3951079846031229        82.734889653425313     
   22.790167344255888        4.8403567793977613       -4.4527970179971117        87.187686671422426     
   24.158645301048068        4.8407594262047811       -4.5058042823940285        91.693490953816450     
   25.609231935247781        4.8411711088445193       -4.5573400576434357        96.250831011459880     
   27.146853767499476        4.8415919405863885       -4.6073708415022772        100.85820185296215     
   28.684475599751170        4.8419984919739010       -4.6533531215451536        105.51155497450731     
   30.314354741937969        4.8424147189817965       -4.6981107691950390        110.20966574370235     
   32.042026632655976        4.8428407640040820       -4.7416580941529212        114.95132383785527     
   33.769698523373982        4.8432528624157118       -4.7818115712004428        119.73313540905571     
   35.601030727535068        4.8436752681254767       -4.8210754611365685        124.55421087019228     
   37.432362931696154        4.8440843477431965       -4.8574865413504105        129.41169741154269     
   39.373575068106902        4.8445041258078350       -4.8933358841773220        134.30503329572002     
   41.314787204517650        4.8449110367226895       -4.9268392416745099        139.23187253739454     
   43.372472069113044        4.8453289091975265       -4.9601330605234883        144.19200559791801     
   45.430156933708439        4.8457341954784958       -4.9915749355197212        149.18358053343772     
   47.611302890179559        4.8461505382060217       -5.0232114090185451        154.20679194245628     
   49.792448846650679        4.8465543716733839       -5.0535066569645215        159.26029859942079     
   52.104463560510062        4.8469691307496436       -5.0844925177955265        164.34479111721632     
   54.416478274369446        4.8473712116228480       -5.1147027410322483        169.45949385824858     
   56.867213871060393        4.8477837774411281       -5.1462455424620916        174.60573940071066     
   59.317949467751340        4.8481831850008472       -5.1776802983632351        179.78341969907390     
   61.915729200243746        4.8485922046463736       -5.2113049617181790        184.99472466079209     
   64.513508932736158        4.8489871774001161       -5.2456465699842267        190.24037123077630     
   67.111288665228571        4.8493682923710937       -5.2811098111837884        195.52148104196010     
   69.864935181670518        4.8497567936354624       -5.3204356211560802        200.84191666311619     
   72.618581698112465        4.8501297803161485       -5.3619656530598263        206.20388231617602     
   75.537447005540926        4.8505075275452185       -5.4090175056648047        211.61289982184081     
   78.456312312969388        4.8508673349907747       -5.4596475105832791        217.07254733242408     
   81.375177620397849        4.8512087558675709       -5.5143975272119627        222.58694485963605     
   84.294042927826311        4.8515312267204251       -5.5738017807410980        228.16074664037714     
   87.212908235254773        4.8518340759170853       -5.6383849963914319        233.79913163676858     
   90.131773542683234        4.8521165319255450       -5.7086602371348372        239.50779187390341     
   93.050638850111696        4.8523777314876808       -5.7851265679273833        245.29291844183081     
   95.969504157540158        4.8526167276345955       -5.8682667871515743        251.16118522898239     
   99.063501383414334        4.8528438935280391       -5.9644450349168849        257.12563026389927     
   102.34313844284097        4.8530537240405982       -6.0760604677222734        263.20169073162157     
   105.81955372583319        4.8532393800844131       -6.2059265703388125        269.40761730196039     
   109.50455392580494        4.8533924024128225       -6.3573243489451876        275.76494165090560     
   113.41065413777501        4.8535023744335097       -6.5340557491769982        282.29899740008261     
   117.55112036246328        4.8535565292470055       -6.7404947826538280        289.03949218273647     
   121.94001456063285        4.8535392973353186       -6.9816331090025452        296.02112529173900     
   126.59224241069259        4.8534317932511923       -7.2631160810970501        303.28424137283605     
   131.52360393175593        4.8532112424099436       -7.5912645953686555        310.87550596820472     
   136.75084714408305        4.8528503527258442       -7.9730775953583679        318.84858356356307     
   142.29172494914980        4.8523166403479765       -8.4162098715721037        327.26479343513518     
   148.16505542252054        4.8515717310131894       -8.9289166534637925        336.19371008859895     
   154.03838589589128        4.8506390500851468       -9.4840351085024768        345.67774519710144     
   159.91171636926202        4.8495108239320581       -10.080625841847963        355.75837103894941     
   165.78504684263277        4.8481801575482679       -10.717435423457806        366.47580646240721     
   171.65837731600351        4.8466410701053579       -11.392946545942602        377.86875300834981     
   177.53170778937425        4.8448885089334501       -12.105427588754443        389.97418059710424     
   183.40503826274499        4.8429183449974067       -12.852979546748566        402.82716014385278     
   189.27836873611574        4.8407273353240008       -13.633587191961594        416.46074733581435     
   195.50409903788875        4.8381539923707937       -14.495650067046068        430.95639740286043     
   202.10337315776815        4.8351424119782429       -15.445260095852170        446.40165749871261     
   209.09860372484030        4.8316304288358980       -16.488404020915379        462.89006151962798     
   216.51354812593678        4.8275493398527862       -17.630843859675508        480.52090537930349     
   224.37338919109905        4.8228237672722738       -18.877960650786715        499.39886603009018     
   232.23323025626132        4.8177033166132093       -20.156307479978924        519.55517351006915     
   240.09307132142359        4.8121943165615466       -21.461174117355210        541.01634762742435     
   247.95291238658587        4.8063044314715464       -22.788082652690367        563.80443028011473     
   255.81275345174814        4.8000424655119041       -24.132801708944015        587.93723198905877     
   263.67259451691041        4.7934181833662874       -25.491353591584243        613.42858558064302     
   271.53243558207265        4.7864421471540819       -26.860016486967783        640.28860206761078     
   279.39227664723489        4.7791255687624021       -28.235323134495879        668.52392520210662     
   287.25211771239714        4.7714801766055004       -29.614056912370195        698.13798211447681     
   295.11195877755938        4.7635180957997427       -30.993245978276288        729.13122809275308     
   302.97179984272162        4.7552517407681982       -32.370155939271335        761.50138403202436     
   310.83164090788387        4.7466937193242789       -33.742281433315888        795.24366546534020     
   318.69148197304611        4.7378567473157727       -35.107336946986997        830.35100241232715     
   326.55132303820835        4.7287534191077727       -36.463284865351923        866.81428727767911     
   334.88275456728036        4.7188198896220719       -37.888100287439720        904.70238756511878     
   343.71407198809669        4.7079891001317211       -39.382034175221882        944.08442174034064     
   353.07526845416197        4.6961909160960404       -40.944785171382321        985.02920691172301     
   362.99813670819117        4.6833527163433244       -42.575385311889264        1027.6045922236124     
   372.92100496222037        4.6702058571730998       -44.178053539465793        1071.7826457630781     
   382.84387321624956        4.6567732703299951       -45.751104835638841        1117.5337505987170     
   392.76674147027876        4.6430769982798266       -47.293235799837809        1164.8269863985547     
   402.68960972430796        4.6291380943929177       -48.803511409724074        1213.6304978082787     
   412.61247797833715        4.6149765481484071       -50.281332144028262        1263.9118299523070     
   422.53534623236635        4.6006112450870367       -51.726385020634055        1315.6382149729411     
   432.45821448639555        4.5860599617843514       -53.138588715061360        1368.7768036880025     
   442.38108274042474        4.5713393894543906       -54.518040536046229        1423.2948442240488     
   451.31166416905103        4.5579649590683644       -55.733211763698769        1479.0280559877476     
   460.77808048339489        4.5436597271575074       -56.991937355337299        1536.0199933430849     
   470.81248177659938        4.5283666867380621       -58.293558507335106        1594.3135518504200     
   480.84688306980388        4.5129572642401561       -59.563054967674830        1653.8766068180948     
   490.88128436300838        4.4974440425445144       -60.800942558511657        1714.6775493766065     
   500.91568565621287        4.4818387931048003       -62.007787347689039        1776.6853367242957     
   510.95008694941737        4.4661525117200185       -63.184205277196412        1839.8695420014922     
   520.98448824262186        4.4503954477063496       -64.330861820699425        1904.2004038221917     
   531.01888953582636        4.4345771293311138       -65.448469905771859        1969.6488737279635     
   541.05329082903086        4.4187063884117173       -66.537785260873861        2036.1866589888373     
   551.08769212223535        4.4027913864903176       -67.599599115217856        2103.7862581040549     
   561.12209341543985        4.3868396479802252       -68.634724074303421        2172.4209821783584     
   571.15649470864435        4.3708581053444666       -69.643972527587138        2242.0649547059456     
   581.19089600184884        4.3548531540041200       -70.628135813524750        2312.6930905194704     
   591.22529729505334        4.3388307121120055       -71.587968096603291        2384.2810586160736     
   601.25969858825783        4.3227962800097233       -72.524176487646955        2456.8052351037204     
   611.29409988146233        4.3067546686918039       -73.437433016692509        2530.2426681204129     
   621.93056525225916        4.2897485557091022       -74.380418514711522        2604.6230866351243     
   633.20521854530375        4.2717261663563466       -75.352634679452279        2679.9757213145767     
   645.15635103593104        4.2526340742882738       -76.353364879720942        2756.3290861942978     
   657.82455147599592        4.2324178397170842       -77.381627658101124        2833.7107138523988     
   670.49275191606080        4.2122292839831745       -78.378421431217987        2912.0891352836170     
   683.92104438252954        4.1908689082702084       -79.400890195420729        2991.4900254790377     
   698.15503439698648        4.1682797212074005       -80.447848748932131        3071.9378742279700     
   713.24306381231077        4.1444034875091909       -81.517938795252206        3153.4558130232222     
   729.23637499255460        4.1191809661741994       -82.609545335527287        3236.0653583587496     
   746.18928484361300        4.0925535648195126       -83.720291483225253        3319.7856498419746     
   763.14219469467139        4.0660443468841123       -84.785883865162901        3404.5715337071374     
   780.09510454572978        4.0396639926616791       -85.807007294171342        3490.3785410013088     
   797.04801439678818        4.0134233276527223       -86.784193154812399        3577.1627341561211     
   814.00092424784657        3.9873329721539483       -87.718112007071568        3664.8808461631925     
   830.95383409890496        3.9614028915785049       -88.609741907178062        3753.4905880703704     
   847.90674394996336        3.9356420194044590       -89.460397942285269        3842.9509860126559     
   864.85965380102175        3.9100582297757178       -90.271510017737185        3933.2224960303929     
   881.81256365208014        3.8846585371415001       -91.044429851509378        4024.2669258819024     
   898.76547350313854        3.8594493183353551       -91.780368240784412        4116.0472941226872     
   915.71838335419693        3.8344364428328968       -92.480430063621384        4208.5277241863087     
   932.67129320525532        3.8096252960226642       -93.145684637823180        4301.6734088241319     
   949.62420305631372        3.7850191708686753       -93.777659807031355        4395.4510686311633     
   967.59428749843562        3.7591730140845181       -94.411298689977528        4489.8623673211405     
   986.64257700708492        3.7320461672935306       -95.044084811347318        4584.9064521324881     
   1006.8337638862531        3.7036016211681986       -95.672821691492118        4680.5792738239797     
   1027.0249507654214        3.6754679348251491       -96.262290836474293        4776.8415646604544     
   1047.2161376445897        3.6476437808435342       -96.815407990873155        4873.6569726513280     
   1068.6187957365080        3.6185022116959322       -97.362978967001183        4971.0199516183293     
   1090.0214538284263        3.5897055963982831       -97.876898604478114        5068.8968502228072     
   1111.4241119203446        3.5612461142780525       -98.361438349820887        5167.2582885726279     
   1132.8267700122628        3.5331149352235514       -98.819739396627384        5266.0780279692553     
   1154.2294281041811        3.5053037593512921       -99.253764361628228        5365.3317923308832     
   1175.6320861960994        3.4778057302988041       -99.664520581330564        5464.9963129122134     
   1197.0347442880177        3.4506158347639455       -100.05233643497958        5565.0486493471926     
   1218.4374023799360        3.4237304183171746       -100.41746747797379        5665.4661168251660     
   1239.8400604718543        3.3971464271870375       -100.76042711504897        5766.2265439402145     
   1261.2427185637725        3.3708607138562092       -101.08209472383157        5867.3086386640462     
   1282.6453766556908        3.3448695770074943       -101.38367092402724        5968.6923095880738     
   1304.0480347476091        3.3191685366392418       -101.66657656508508        6070.3588861531589     
   1325.4506928395274        3.2937522838765654       -101.93234920732699        6172.2912353604861     
   1346.8533509314457        3.2686147561654870       -102.18254706048793        6274.4737824209742     
   1368.2560090233640        3.2437492015081473       -102.41873062347985        6376.8925130444541     
   1389.6586671152822        3.2191480203732503       -102.64259602003843        6479.5351090644926     
   1411.0613252072005        3.1948042854698429       -102.85486417329405        6582.3899732377868     
   1432.4639832991188        3.1707129815506461       -103.05521738763466        6685.4451906254217     
   1453.8666413910371        3.1468706544700642       -103.24320959982232        6788.6884002252436     
   1475.2692994829554        3.1232749367681696       -103.41847501584856        6892.1068752410920     
   1496.6719575748737        3.0999240769083372       -103.58083135336987        6995.6877065944618     
   1518.0746156667919        3.0768166200978984       -103.73026310073070        7099.4179696951924     
   1539.4772737587102        3.0539512094612773       -103.86688542079153        7203.2848551159841     
   1560.8799318506285        3.0313262497108369       -103.99105848052221        7307.2759135965061     
   1582.2825899425468        3.0089340167461036       -104.10446780304460        7411.3803813995510     
   1604.9694075199802        2.9854665776784306       -104.21201931181599        7515.5924007113672     
   1627.6562250974137        2.9622566137720630       -104.30953149247534        7619.9019322038421     
   1650.3430426748471        2.9392971178449026       -104.39862546717693        7724.3005576710193     
   1673.0298602522805        2.9165803432987887       -104.48073993958576        7828.7812976106052     
   1695.7166778297139        2.8940917366713599       -104.55807995126983        7933.3393775618752     
   1719.7647044617934        2.8705155483332190       -104.63269144617091        8037.9720690080458     
   1743.8127310938728        2.8471913093689847       -104.69902099770474        8142.6710900057506     
   1767.8607577259522        2.8241191316680201       -104.75481606507836        8247.4259060708282     
