 #              _____________________  _______________________             #
 #              ___  __ \__  __ \_  / / /_  /___  ____/_  ___/             #
 #              __  / / /_  /_/ /  / / /_  __/_  __/  _____ \              #
 #              _  /_/ /_  _, _// /_/ / / /_ _  /___  ____/ /              #
 #              /_____/ /_/ |_| \____/  \__/ /_____/  /____/               #
 #                                                                         #
  
 #        time                      T            heat flux [W.L-2]   in    x              directions   cumulative flux
 #-----------------------------------------------------------------------------------------------

   0.0000000000000000        5.0949000000000000        4.9672671498011827        4.9672671498011827     
   1.0000000000000000        5.0951846236159906        4.8794995841239359        9.8467667339251186     
   1.8999999999999999        5.0954275032315950        4.8067201572140954        14.653486891139213     
   2.7100000000000000        5.0956360977317825        4.7458518744367666        19.399338765575980     
   3.5200000000000000        5.0958353960806528        4.6892516098031347        24.088590375379113     
   4.3300000000000001        5.0960260442425795        4.6365842005791080        28.725174575958221     
   5.1400000000000006        5.0962086376552396        4.5875419384185010        33.312716514376724     
   5.9500000000000011        5.0963837253570459        4.5418422310487703        37.854558745425493     
   6.7600000000000016        5.0965518137643828        4.4992254703500594        42.353784215775555     
   7.5700000000000021        5.0967133701294101        4.4594530880811956        46.813237303856752     
   8.3800000000000026        5.0968688257064541        4.4223057822338889        51.235543086090644     
   9.1900000000000031        5.0970185786524045        4.3875818985843873        55.623124984675030     
   10.000000000000004        5.0971629966843270        4.3550959534334659        59.978220938108493     
   10.810000000000004        5.0973024196058221        4.3246772626399075        64.302898200748402     
   11.668600000000005        5.0974449675105635        4.2945700575900165        68.597468258338424     
   12.578716000000005        5.0975905862436948        4.2648549268534204        72.862323185191840     
   13.543438960000005        5.0977392233185048        4.2356086617518178        77.097931846943652     
   14.508161920000004        5.0978825440180993        4.2084158143372354        81.306347661280881     
   15.530768257600005        5.0980289252581406        4.1816853350785861        85.488032996359465     
   16.614730975456006        5.0981783339886970        4.1554755718682141        89.643508568227674     
   17.763731456383365        5.0983307412373176        4.1298375804369272        93.773346148664601     
   18.912731937310724        5.0984776330791677        4.1061269381961276        97.879473086860727     
   20.130672447093726        5.0986276211020458        4.0829296087208640        101.96240269558159     
   21.421689387463708        5.0987806929294841        4.0602741407591818        106.02267683634076     
   22.790167344255888        5.0989368381752804        4.0381796102056429        110.06085644654641     
   24.158645301048068        5.0990873472453249        4.0177836997332186        114.07864014627962     
   25.609231935247781        5.0992410516615063        3.9978423546848769        118.07648250096450     
   27.146853767499476        5.0993979408482364        3.9783527651074810        122.05483526607199     
   28.684475599751170        5.0995492478094695        3.9603056048191889        126.01514087089117     
   30.314354741937969        5.0997038335364362        3.9425854216601293        129.95772629255131     
   32.042026632655976        5.0998616659450580        3.9251716462325055        133.88289793878383     
   33.769698523373982        5.1000138942574766        3.9089443965099742        137.79184233529381     
   35.601030727535068        5.1001693962238628        3.8928918477876508        141.68473418308145     
   37.432362931696154        5.1003194172026252        3.8778310620794900        145.56256524516093     
   39.373575068106902        5.1004726705855541        3.8628241455918917        149.42538939075283     
   41.314787204517650        5.1006204932007932        3.8486430251120596        153.27403241586489     
   43.372472069113044        5.1007714309462342        3.8344080722304277        157.10844048809531     
   45.430156933708439        5.1009169169944037        3.8208612711027845        160.92930175919810     
   47.611302890179559        5.1010653190735713        3.8071676853251435        164.73646944452324     
   49.792448846650679        5.1012081812962045        3.7940517923080224        168.53052123683125     
   52.104463560510062        5.1013536749402615        3.7807119010322263        172.31123313786347     
   54.416478274369446        5.1014934792669626        3.7678647146359241        176.07909785249939     
   56.867213871060393        5.1016355433440914        3.7547324435665175        179.83383029606591     
   59.317949467751340        5.1017717150202984        3.7420311728901323        183.57586146895605     
   61.915729200243746        5.1019096882157857        3.7289996977736508        187.30486116672969     
   64.513508932736158        5.1020415213060764        3.7163582112455353        191.02121937797523     
   67.111288665228571        5.1021674237428911        3.7040730764591578        194.72529245443440     
   69.864935181670518        5.1022944460291546        3.6914192059056545        198.41671166034004     
   72.618581698112465        5.1024152475811864        3.6791082837968756        202.09581994413691     
   75.537447005540926        5.1025365447215094        3.6664198117209610        205.76223975585788     
   78.456312312969388        5.1026513128426432        3.6540731695624586        209.41631292542033     
   81.375177620397849        5.1027597635850510        3.6420527251048234        213.05836565052516     
   84.294042927826311        5.1028620985495685        3.6303456671113725        216.68871131763655     
   87.212908235254773        5.1029585106136137        3.6189413302212916        220.30765264785785     
   90.131773542683234        5.1030491849486648        3.6078306730491909        223.91548332090704     
   93.050638850111696        5.1031342998079694        3.5970058761173629        227.51248919702439     
   95.969504157540158        5.1032140272333884        3.5864600601694043        231.09894925719379     
   99.063501383414334        5.1032926823399771        3.5755875426626349        234.67453679985644     
   102.34313844284097        5.1033697035600518        3.5643985151193691        238.23893531497581     
   105.81955372583319        5.1034444672534187        3.5529065927949084        241.79184190777070     
   109.50455392580494        5.1035162848118079        3.5411291036034083        245.33297101137410     
   113.41065413777501        5.1035844000450794        3.5290873576471737        248.86205836902127     
   117.55112036246328        5.1036479868948277        3.5168068914295048        252.37886526045077     
   121.94001456063285        5.1037061475134848        3.5043176811266017        255.88318294157736     
   126.59224241069259        5.1037579107367002        3.4916543196754861        259.37483726125282     
   131.52360393175593        5.1038022309641766        3.4788561527536674        262.85369341400650     
   136.75084714408305        5.1038379874491921        3.4659673689613917        266.31966078296790     
   142.29172494914980        5.1038639839800544        3.4530370395886569        269.77269782255655     
   148.16505542252054        5.1038789487088536        3.4401190883095727        273.21281691086614     
   154.03838589589128        5.1038820566344807        3.4279561892955792        276.64077310016171     
   159.91171636926202        5.1038739943994731        3.4165160990598675        280.05728919922160     
   165.78504684263277        5.1038554036166088        3.4057675604734943        283.46305675969512     
   171.65837731600351        5.1038268836670193        3.3956803465738838        286.85873710626902     
   177.53170778937425        5.1037889943892214        3.3862252883363904        290.24496239460541     
   183.40503826274499        5.1037422586488050        3.3773742882315276        293.62233668283693     
   189.27836873611574        5.1036871648924018        3.3691003127012551        296.99143699553821     
   195.50409903788875        5.1036199154110147        3.3609474081063722        300.35238440364458     
   202.10337315776815        5.1035392841798908        3.3529640944914112        303.70534849813600     
   209.09860372484030        5.1034439694107832        3.3452022512931037        307.05055074942914     
   216.51354812593678        5.1033325915499947        3.3377169352484524        310.38826768467760     
   224.37338919109905        5.1032036910083116        3.3305661612246276        313.71883384590222     
   232.23323025626132        5.1030646672199786        3.3241515573899765        317.04298540329222     
   240.09307132142359        5.1029161766431868        3.3184284082987174        320.36141381159092     
   247.95291238658587        5.1027588209961730        3.3133546065451940        323.67476841813613     
   255.81275345174814        5.1025931522001464        3.3088905167484310        326.98365893488455     
   263.67259451691041        5.1024196768619845        3.3049988433579616        330.28865777824251     
   271.53243558207265        5.1022388603381268        3.3016445030504644        333.59030228129296     
   279.39227664723489        5.1020511304183334        3.2987945021853280        336.88909678347829     
   287.25211771239714        5.1018568806650055        3.2964178195327412        340.18551460301103     
   295.11195877755938        5.1016564734408512        3.2944852943389900        343.47999989735001     
   302.97179984272162        5.1014502426547512        3.2929695197089242        346.77296941705896     
   310.83164090788387        5.1012384962529893        3.2918447411959293        350.06481415825488     
   318.69148197304611        5.1010215184804233        3.2910867604637688        353.35590091871865     
   326.55132303820835        5.1007995718651005        3.2906728138442141        356.64657373256284     
   334.88275456728036        5.1005590134368219        3.2905952814244657        359.93716901398733     
   343.71407198809669        5.1002983865455755        3.2908908579848521        363.22805987197216     
   353.07526845416197        5.1000161329471485        3.2915975018381696        366.51965737381033     
   362.99813670819117        5.0997105862045702        3.2927542674845185        369.81241164129483     
   372.92100496222037        5.0993990199780068        3.2942870299427480        373.10669867123755     
   382.84387321624956        5.0990817435371332        3.2961664980621421        376.40286516929967     
   392.76674147027876        5.0987590398435536        3.2983655860241639        379.70123075532382     
   402.68960972430796        5.0984311682311931        3.3008592432784161        383.00208999860223     
   412.61247797833715        5.0980983667986681        3.3036242968720231        386.30571429547427     
   422.53534623236635        5.0977608545459674        3.3066393054088512        389.61235360088313     
   432.45821448639555        5.0974188332839674        3.3098844239091938        392.92223802479231     
   442.38108274042474        5.0970724893419286        3.3133412788670147        396.23557930365934     
   451.31166416905103        5.0967574048479243        3.3166114356583658        399.55219073931772     
   460.77808048339489        5.0964197635669173        3.3202426300315984        402.87243336934932     
   470.81248177659938        5.0960579158844990        3.3242616562702558        406.19669502561959     
   480.84688306980388        5.0956922641438407        3.3284364704413059        409.52513149606091     
   490.88128436300838        5.0953229426101743        3.3327539594980160        412.85788545555891     
   500.91568565621287        5.0949500766829319        3.3372019595210007        416.19508741507991     
   510.95008694941737        5.0945737837409339        3.3417691804121308        419.53685659549205     
   520.98448824262186        5.0941941739001484        3.3464451366794736        422.88330173217150     
   531.01888953582636        5.0938113506933282        3.3512200838342392        426.23452181600572     
   541.05329082903086        5.0934254116797941        3.3560849599619962        429.59060677596773     
   551.08769212223535        5.0930364489927049        3.3610313320651164        432.95163810803285     
   561.12209341543985        5.0926445498304149        3.3660513467717128        436.31768945480457     
   571.15649470864435        5.0922497968977201        3.3711376850789541        439.68882713988353     
   581.19089600184884        5.0918522688022332        3.3762835207788182        443.06511066066236     
   591.22529729505334        5.0914520404105126        3.3814824822728564        446.44659314293523     
   601.25969858825783        5.0910491831681135        3.3867286174875812        449.83332176042279     
   611.29409988146233        5.0906437651699283        3.3920163527908489        453.22533811321364     
   621.93056525225916        5.0902112228176293        3.3976619281387772        456.62300004135244     
   633.20521854530375        5.0897496711080148        3.4036849896904688        460.02668503104292     
   645.15635103593104        5.0892570922428213        3.4101054276272564        463.43679045867015     
   657.82455147599592        5.0887313271970394        3.4169432347212023        466.85373369339135     
   670.49275191606080        5.0882020394469665        3.4238054771338366        470.27753917052519     
   683.92104438252954        5.0876371613412630        3.4310984715340993        473.70863764205927     
   698.15503439698648        5.0870342256498287        3.4388411471045424        477.14747878916381     
   713.24306381231077        5.0863905957784947        3.4470518420749832        480.59453063123880     
   729.23637499255460        5.0857034556380274        3.4557479933025359        484.05027862454131     
   746.18928484361300        5.0849697997886008        3.4649457695613246        487.51522439410263     
   763.14219469467139        5.0842310564068338        3.4741122917931717        490.98933668589581     
   780.09510454572978        5.0834874174959381        3.4832373118376307        494.47257399773343     
   797.04801439678818        5.0827390672807855        3.4923113242057218        497.96488532193916     
   814.00092424784657        5.0819861826668218        3.5013254685103683        501.46621079044951     
   830.95383409890496        5.0812289336175898        3.5102714420472529        504.97648223249678     
   847.90674394996336        5.0804674834635160        3.5191414213429431        508.49562365383974     
   864.85965380102175        5.0797019891528148        3.5279279916800435        512.02355164551977     
   881.81256365208014        5.0789326014537952        3.5366240837432699        515.56017572926305     
   898.76547350313854        5.0781594651165003        3.5452229166794864        519.10539864594250     
   915.71838335419693        5.0773827190005774        3.5537179469472200        522.65911659288975     
   932.67129320525532        5.0766024961752212        3.5621028224376361        526.22121941532737     
   949.62420305631372        5.0758189235603606        3.5703713434787736        529.79159075880614     
   967.59428749843562        5.0749847178204082        3.5789979926270834        533.37058875143327     
   986.64257700708492        5.0740965569148155        3.5879786939751530        536.95856744540845     
   1006.8337638862531        5.0731509049015955        3.5973044266121308        540.55587187202059     
   1027.0249507654214        5.0722012228927724        3.6064263353492803        544.16229820736987     
   1047.2161376445897        5.0712476713099486        3.6153343894269994        547.77763259679682     
   1068.6187957365080        5.0702327376339138        3.6245246121475798        551.40215720894435     
   1090.0214538284263        5.0692137981061753        3.6334503859328051        555.03560759487721     
   1111.4241119203446        5.0681910025756665        3.6420994265090276        558.67770702138625     
   1132.8267700122628        5.0671644870575818        3.6504592791267667        562.32816630051298     
   1154.2294281041811        5.0661343738098763        3.6585173030548925        565.98668360356783     
   1175.6320861960994        5.0651007714282770        3.6662606632091226        569.65294426677690     
   1197.0347442880177        5.0640637749622073        3.6736763281872280        573.32662059496408     
   1218.4374023799360        5.0630234660532842        3.6807510740274005        577.00737166899148     
   1239.8400604718543        5.0619799130975309        3.6874714930251580        580.69484316201670     
   1261.2427185637725        5.0609331714318007        3.6938240069955826        584.38866716901225     
   1282.6453766556908        5.0598832835445586        3.6997948843925310        588.08846205340478     
   1304.0480347476091        5.0588302793107269        3.7053702607204833        591.79383231412521     
   1325.4506928395274        5.0577741762499810        3.7105361617320165        595.50436847585718     
   1346.8533509314457        5.0567149798076407        3.7152785289152077        599.21964700477236     
   1368.2560090233640        5.0556526836570388        3.7195832468159278        602.93923025158824     
   1389.6586671152822        5.0545872700220471        3.7234361717515858        606.66266642333983     
   1411.0613252072005        5.0535187100183148        3.7268231615434817        610.38948958488334     
   1432.4639832991188        5.0524469640116916        3.7297301059022812        614.11921969078560     
   1453.8666413910371        5.0513719819921867        3.7321429571592999        617.85136264794494     
   1475.2692994829554        5.0502937039618008        3.7340477610247169        621.58541040896966     
   1496.6719575748737        5.0492120603344786        3.7354306871250067        625.32084109609468     
   1518.0746156667919        5.0481269723464877        3.7362780590526685        629.05711915514735     
   1539.4772737587102        5.0470383524754396        3.7365763837333703        632.79369553888068     
   1560.8799318506285        5.0459461048662941        3.7363123799096769        636.53000791879037     
   1582.2825899425468        5.0448501261240271        3.7354729880555877        640.26548090684594     
   1604.9694075199802        5.0436840626594064        3.7339215608320626        643.99940246767801     
   1627.6562250974137        5.0425135317395835        3.7316936251125936        647.73109609279061     
   1650.3430426748471        5.0413383833648142        3.7287747565401199        651.45987084933074     
   1673.0298602522805        5.0401584598961593        3.7251509613263991        655.18502181065719     
   1695.7166778297139        5.0389735973432108        3.7208086755521710        658.90583048620931     
   1719.7647044617934        5.0377118877004383        3.7153830935434740        662.62121357975275     
   1743.8127310938728        5.0364442117130368        3.7091198621139938        666.33033344186674     
   1767.8607577259522        5.0351703510509962        3.7020047748531337        670.03233821671984     
