 #              _____________________  _______________________             #
 #              ___  __ \__  __ \_  / / /_  /___  ____/_  ___/             #
 #              __  / / /_  /_/ /  / / /_  __/_  __/  _____ \              #
 #              _  /_/ /_  _, _// /_/ / / /_ _  /___  ____/ /              #
 #              /_____/ /_/ |_| \____/  \__/ /_____/  /____/               #
 #                                                                         #
  
 #        time                      T            heat flux [W.L-2]   in    x              directions   cumulative flux
 #-----------------------------------------------------------------------------------------------

   0.0000000000000000        4.9545000000000003        6.9453268142139937        6.9453268142139937     
   1.0000000000000000        4.9541207102410629        7.0622924841503680        14.007619298364361     
   1.8999999999999999        4.9537970501061457        7.1592827446799312        21.166902043044292     
   2.7100000000000000        4.9535190790819188        7.2403979016913151        28.407299944735605     
   3.5200000000000000        4.9532534965027377        7.3158227146033434        35.723122659338948     
   4.3300000000000001        4.9529994408690108        7.3860026082471295        43.109125267586080     
   5.1400000000000006        4.9527561177723003        7.4513461189152448        50.560471386501327     
   5.9500000000000011        4.9525227943478534        7.5122280231646661        58.072699409665994     
   6.7600000000000016        4.9522987941971559        7.5689921991126070        65.641691608778601     
   7.5700000000000021        4.9520834927404085        7.6219542431105403        73.263645851889137     
   8.3800000000000026        4.9518763129621846        7.6714038627558647        80.935049714645004     
   9.1900000000000031        4.9516767215167192        7.7176070653839508        88.652656780028948     
   10.000000000000004        4.9514842251621287        7.7608081595617566        96.413464939590710     
   10.810000000000004        4.9512983672212778        7.8012316658744405        104.21469660546515     
   11.668600000000005        4.9511083160036158        7.8412040408319452        112.05590064629709     
   12.578716000000005        4.9509141320401113        7.8806076771147779        119.93650832341187     
   13.543438960000005        4.9507158695753786        7.9193274922519246        127.85583581566380     
   14.508161920000004        4.9505246329460864        7.9552584486751323        135.81109426433892     
   15.530768257600005        4.9503292238760777        7.9904897141590574        143.80158397849797     
   16.614730975456006        4.9501296536568029        8.0249234079763738        151.82650738647436     
   17.763731456383365        4.9499259178689101        8.0584673096486874        159.88497469612304     
   18.912731937310724        4.9497293657679844        8.0893372194858060        167.97431191560884     
   20.130672447093726        4.9495284222345193        8.1193525771405035        176.09366449274933     
   21.421689387463708        4.9493230221677953        8.1484407012915732        184.24210519404090     
   22.790167344255888        4.9491130751072498        8.1765360749886451        192.41864126902954     
   24.158645301048068        4.9489102214523157        8.2021812598561894        200.62082252888572     
   25.609231935247781        4.9487024413389715        8.2269115880476171        208.84773411693334     
   27.146853767499476        4.9484895669196911        8.2506789028909733        217.09841301982431     
   28.684475599751170        4.9482833805028195        8.2722694370428442        225.37068245686714     
   30.314354741937969        4.9480716148408979        8.2929880005425431        233.66367045740969     
   32.042026632655976        4.9478540135483353        8.3128000654084708        241.97647052281818     
   33.769698523373982        4.9476426070474480        8.3307093742542229        250.30717989707239     
   35.601030727535068        4.9474247664201298        8.3478079012410618        258.65498779831347     
   37.432362931696154        4.9472125458185774        8.3632390024895162        267.01822680080301     
   39.373575068106902        4.9469932441369737        8.3779451605783564        275.39617196138136     
   41.314787204517650        4.9467790069261071        8.3911924867808985        283.78736444816224     
   43.372472069113044        4.9465569882257325        8.4037916555872769        292.19115610374951     
   45.430156933708439        4.9463394946100667        8.4151169282008507        300.60627303195037     
   47.611302890179559        4.9461134603497161        8.4258632341569548        309.03213626610733     
   49.792448846650679        4.9458914253527881        8.4355002237693153        317.46763648987667     
   52.104463560510062        4.9456600267658928        8.4446216662742017        325.91225815615087     
   54.416478274369446        4.9454321134674597        8.4527812609716158        334.36503941712249     
   56.867213871060393        4.9451939455204759        8.4604848935394976        342.82552431066199     
   59.317949467751340        4.9449587602159379        8.4673599954613756        351.29288430612337     
   61.915729200243746        4.9447123578557699        8.4738367208749921        359.76672102699837     
   64.513508932736158        4.9444684476515466        8.4796065755579892        368.24632760255633     
   67.111288665228571        4.9442266759139848        8.4847599897811730        376.73108759233753     
   69.864935181670518        4.9439724321303062        8.4896231707333882        385.22071076307094     
   72.618581698112465        4.9437199001785137        8.4939680065904994        393.71467876966142     
   75.537447005540926        4.9434538058710338        8.4980745733980942        402.21275334305949     
   78.456312312969388        4.9431890111738648        8.5017546856543902        410.71450802871391     
   81.375177620397849        4.9429252642360408        8.5050713982471144        419.21957942696105     
   84.294042927826311        4.9426623465363502        8.5080796858060221        427.72765911276707     
   87.212908235254773        4.9424000687223790        8.5108275618556828        436.23848667462278     
   90.131773542683234        4.9421382670065146        8.5133570188483283        444.75184369347113     
   93.050638850111696        4.9418768000340272        8.5157048225063345        453.26754851597747     
   95.969504157540158        4.9416155462030664        8.5179032159578547        461.78545173193532     
   99.063501383414334        4.9413387333772967        8.5200989886149774        470.30555072055029     
   102.34313844284097        4.9410453194219661        8.5223096931461448        478.82786041369644     
   105.81955372583319        4.9407341885481006        8.5245568061568910        487.35241721985335     
   109.50455392580494        4.9404041479384206        8.5268659943998184        495.87928321425318     
   113.41065413777501        4.9400539246473096        8.5292673447543894        504.40855055900755     
   117.55112036246328        4.9396821628471415        8.5317955477200051        512.94034610672759     
   121.94001456063285        4.9392874214950311        8.5344900234157581        521.47483613014333     
   126.59224241069259        4.9388681724949528        8.5373949782472192        530.01223110839055     
   131.52360393175593        4.9384227994298371        8.5405593795691139        538.55279048795967     
   136.75084714408305        4.9379495969369138        8.5440368348335536        547.09682732279327     
   142.29172494914980        4.9374467707969396        8.5478853609395902        555.64471268373291     
   148.16505542252054        4.9369124388455266        8.5521669799248770        564.19687966365780     
   154.03838589589128        4.9363768426878982        8.5566634758023135        572.75354313946013     
   159.91171636926202        4.9358400724643978        8.5613818024113097        581.31492494187148     
   165.78504684263277        4.9353022313611232        8.5663243785341940        589.88124932040569     
   171.65837731600351        4.9347634315668927        8.5714900147638851        598.45273933516955     
   177.53170778937425        4.9342237910769162        8.5768746664118414        607.02961400158142     
   183.40503826274499        4.9336834311731206        8.5824720469162710        615.61208604849764     
   189.27836873611574        4.9331424742645567        8.5882741414619623        624.20036018995961     
   195.50409903788875        4.9325685349166486        8.5946431382830060        632.79500332824261     
   202.10337315776815        4.9319597401938671        8.6016252289175696        641.39662855716017     
   209.09860372484030        4.9313141453102025        8.6092667600779809        650.00589531723813     
   216.51354812593678        4.9306297363067788        8.6176134453070929        658.62350876254527     
   224.37338919109905        4.9299044339504006        8.6267094601505647        667.25021822269582     
   232.23323025626132        4.9291795478082454        8.6360253323082343        675.88624355500406     
   240.09307132142359        4.9284553093225174        8.6455327481904689        684.53177630319453     
   247.95291238658587        4.9277319357685974        8.6552040521548719        693.18698035534942     
   255.81275345174814        4.9270096303168032        8.6650124684654042        701.85199282381484     
   263.67259451691041        4.9262885822852676        8.6749322625403344        710.52692508635516     
   271.53243558207265        4.9255689675294256        8.6849388539298396        719.21186394028496     
   279.39227664723489        4.9248509489265517        8.6950088909163448        727.90687283120133     
   287.25211771239714        4.9241346769236207        8.7051202946509960        736.61199312585234     
   295.11195877755938        4.9234202901243620        8.7152522791931855        745.32724540504557     
   302.97179984272162        4.9227079158971936        8.7253853525790248        754.05263075762457     
   310.83164090788387        4.9219976709902484        8.7355013030751962        762.78813206069981     
   318.69148197304611        4.9212896621431526        8.7455831739829470        771.53371523468275     
   326.55132303820835        4.9205839861999356        8.7556151624698444        780.28933039715264     
   334.88275456728036        4.9198386963687311        8.7661758285536067        789.05550622570627     
   343.71407198809669        4.9190518646990729        8.7772690848934936        797.83277531059980     
   353.07526845416197        4.9182215092668633        8.7888942090791851        806.62166951967902     
   362.99813670819117        4.9173455980233465        8.8010452188580217        815.42271473853702     
   372.92100496222037        4.9164740586285181        8.8130053975201914        824.23572013605724     
   382.84387321624956        4.9156069835429230        8.8247578604644055        833.06047799652163     
   392.76674147027876        4.9147444519046353        8.8362877836787632        841.89676578020044     
   402.68960972430796        4.9138865307263568        8.8475822480700632        850.74434802827045     
   412.61247797833715        4.9130332759991218        8.8586300900298216        859.60297811830026     
   422.53534623236635        4.9121847337075932        8.8694217590277589        868.47239987732803     
   432.45821448639555        4.9113409407622610        8.8799491827218997        877.35234906004996     
   442.38108274042474        4.9105019258540814        8.8902056398032130        886.24255469985314     
   451.31166416905103        4.9097506984220773        8.8992127530006773        895.14176745285386     
   460.77808048339489        4.9089587774251262        8.9085051466671494        904.05027259952101     
   470.81248177659938        4.9081242723169076        8.9180649770335112        912.96833757655452     
   480.84688306980388        4.9072947017454318        8.9273319314851793        921.89566950803965     
   490.88128436300838        4.9064700642211596        8.9363042655726428        930.83197377361228     
   500.91568565621287        4.9056503535693574        8.9449810250025301        939.77695479861484     
   510.95008694941737        4.9048355594106576        8.9533619645028519        948.73031676311768     
   520.98448824262186        4.9040256675979466        8.9614474732123437        957.69176423633007     
   531.01888953582636        4.9032206606133490        8.9692385062007034        966.66100274253074     
   541.05329082903086        4.9024205179287819        8.9767365217232804        975.63773926425404     
   551.08769212223535        4.9016252163333114        8.9839434238316773        984.62168268808568     
   561.12209341543985        4.9008347302302315        8.9908615099652813        993.61254419805095     
   571.15649470864435        4.9000490319065886        8.9974934231674748        1002.6100376212185     
   581.19089600184884        4.8992680917776230        9.0038421085806508        1011.6138797297991     
   591.22529729505334        4.8984918786083975        9.0099107738990707        1020.6237905036982     
   601.25969858825783        4.8977203597146826        9.0157028534712271        1029.6394933571694     
   611.29409988146233        4.8969535017322690        9.0212217660091927        1038.6607151231785     
   621.93056525225916        4.8961458270490334        9.0267696199776992        1047.6874847431563     
   633.20521854530375        4.8952954774590687        9.0323164076049096        1056.7198011507612     
   645.15635103593104        4.8944005449325925        9.0378276819511516        1065.7576288327123     
   657.82455147599592        4.8934590726966594        9.0432645501763176        1074.8008933828885     
   670.49275191606080        4.8925246815868189        9.0483042319825948        1083.8491976148712     
   683.92104438252954        4.8915420887456991        9.0532106846846077        1092.9024082995559     
   698.15503439698648        4.8905092613405934        9.0579344373774973        1101.9603427369334     
   713.24306381231077        4.8894241284200355        9.0624202981390827        1111.0227630350726     
   729.23637499255460        4.8882845850738388        9.0666070324853916        1120.0893700675579     
   746.18928484361300        4.8870884934897978        9.0704277110226350        1129.1597977785805     
   763.14219469467139        4.8859040376898815        9.0736508536162415        1138.2334486321968     
   780.09510454572978        4.8847310274420126        9.0762964178064411        1147.3097450500031     
   797.04801439678818        4.8835692739181713        9.0783839562688051        1156.3881290062720     
   814.00092424784657        4.8824185900141055        9.0799325767316805        1165.4680615830036     
   830.95383409890496        4.8812787906137416        9.0809609118793393        1174.5490224948830     
   847.90674394996336        4.8801496928063077        9.0814870976342927        1183.6305095925172     
   864.85965380102175        4.8790311160630253        9.0815287584220137        1192.7120383509393     
   881.81256365208014        4.8779228823791918        9.0811029982411444        1201.7931413491806     
   898.76547350313854        4.8768248163866463        9.0802263965319945        1210.8733677457126     
   915.71838335419693        4.8757367454408422        9.0789150079840866        1219.9522827536966     
   932.67129320525532        4.8746584996862179        9.0771843655405764        1229.0294671192373     
   949.62420305631372        4.8735899172295136        9.0750488703630641        1238.1045159896005     
   967.59428749843562        4.8724678771594343        9.0723482658778636        1247.1768642554784     
   986.64257700708492        4.8712902611944369        9.0690143894553366        1256.2458786449338     
   1006.8337638862531        4.8700549131157569        9.0649743916585948        1265.3108530365923     
   1027.0249507654214        4.8688322366788261        9.0604490811928873        1274.3713021177853     
   1047.2161376445897        4.8676219855958234        9.0554583165902329        1283.4267604343754     
   1068.6187957365080        4.8663527679765792        9.0496704379733064        1292.4764308723488     
   1090.0214538284263        4.8650969183823580        9.0434064362222113        1301.5198373085711     
   1111.4241119203446        4.8638541552244012        9.0366877075357657        1310.5565250161069     
   1132.8267700122628        4.8626242037144820        9.0295346543679216        1319.5860596704747     
   1154.2294281041811        4.8614067957176346        9.0219667246813184        1328.6080263951560     
   1175.6320861960994        4.8602016695960746        9.0140024500371378        1337.6220288451932     
   1197.0347442880177        4.8590085700460950        9.0056594823637806        1346.6276883275571     
   1218.4374023799360        4.8578272479294142        8.9969546293181395        1355.6246429568753     
   1239.8400604718543        4.8566574601002950        8.9879038881833502        1364.6125468450587     
   1261.2427185637725        4.8554989692294672        8.9785224782862443        1373.5910693233450     
   1282.6453766556908        4.8543515436258735        8.9688248719306696        1382.5598941952755     
   1304.0480347476091        4.8532149570570153        8.9588248238826971        1391.5187190191582     
   1325.4506928395274        4.8520889885686769        8.9485353994323464        1400.4672544185905     
   1346.8533509314457        4.8509734223046479        8.9379690010935651        1409.4052234196840     
   1368.2560090233640        4.8498680473270062        8.9271373939993346        1418.3323608136834     
   1389.6586671152822        4.8487726574375056        8.9160517300569140        1427.2484125437404     
   1411.0613252072005        4.8476870510004746        8.9047225709345579        1436.1531351146750     
   1432.4639832991188        4.8466110307676686        8.8931599099469363        1445.0462950246219     
   1453.8666413910371        4.8455444037054107        8.8813731929241477        1453.9276682175462     
   1475.2692994829554        4.8444869808243700        8.8693713381168617        1462.7970395556631     
   1496.6719575748737        4.8434385770122486        8.8571627552244365        1471.6542023108875     
   1518.0746156667919        4.8423990108696664        8.8447553635976934        1480.4989576744852     
   1539.4772737587102        4.8413681045494785        8.8321566096952715        1489.3311142841803     
   1560.8799318506285        4.8403456835997263        8.8193734838379196        1498.1504877680181     
   1582.2825899425468        4.8393315860044783        8.8064120259121150        1506.9568997939302     
   1604.9694075199802        4.8382657744543387        8.7924809280722620        1515.7493807220026     
   1627.6562250974137        4.8372089083343406        8.7783640467542785        1524.5277447687567     
   1650.3430426748471        4.8361607948430390        8.7640676380736089        1533.2918124068303     
   1673.0298602522805        4.8351212445102734        8.7495974814492588        1542.0414098882795     
   1695.7166778297139        4.8340900810316594        8.7349584099849853        1550.7763682982645     
   1719.7647044617934        4.8330062310299926        8.7192580920876566        1559.4956263903521     
   1743.8127310938728        4.8319313604993495        8.7033795573497237        1568.1990059477018     
   1767.8607577259522        4.8308652581915057        8.6873275436873332        1576.8863334913892     
