 #              _____________________  _______________________             #
 #              ___  __ \__  __ \_  / / /_  /___  ____/_  ___/             #
 #              __  / / /_  /_/ /  / / /_  __/_  __/  _____ \              #
 #              _  /_/ /_  _, _// /_/ / / /_ _  /___  ____/ /              #
 #              /_____/ /_/ |_| \____/  \__/ /_____/  /____/               #
 #                                                                         #
  
 #        time                      T            heat flux [W.L-2]   in    x              directions   cumulative flux
 #-----------------------------------------------------------------------------------------------

   0.0000000000000000        5.0792999999999999       -5.9531136824958040        5.9531136824958040     
   1.0000000000000000        5.0793006146775292       -5.9533009405233388        11.906414623019142     
   1.8999999999999999        5.0793011394833121       -5.9534564682006641        17.859871091219805     
   2.7100000000000000        5.0793015903321779       -5.9535869555256102        23.813458046745417     
   3.5200000000000000        5.0793020210412303       -5.9537090149010217        29.767167061646440     
   4.3300000000000001        5.0793024327422973       -5.9538237270303247        35.720990788676765     
   5.1400000000000006        5.0793028263514666       -5.9539321967435948        41.674922985420359     
   5.9500000000000011        5.0793032025581075       -5.9540355526048065        47.628958538025167     
   6.7600000000000016        5.0793035618145517       -5.9541349439292386        53.583093481954407     
   7.5700000000000021        5.0793039043268582       -5.9542315359143236        59.537325017868731     
   8.3800000000000026        5.0793042300470077       -5.9543265034667119        65.491651521335442     
   9.1900000000000031        5.0793045386667162       -5.9544210242022890        71.446072545537731     
   10.000000000000004        5.0793048296130019       -5.9545162710044668        77.400588816542196     
   10.810000000000004        5.0793051020463338       -5.9546134046853965        83.355202221227586     
   11.668600000000005        5.0793053686846479       -5.9547198429759689        89.309922064203562     
   12.578716000000005        5.0793056244237160       -5.9548381448030652        95.264760209006624     
   13.543438960000005        5.0793058623491634       -5.9549714970832976        101.21973170608992     
   14.508161920000004        5.0793060636687848       -5.9551145145250430        107.17484622061497     
   15.530768257600005        5.0793062311961652       -5.9552788857950558        113.13012510641002     
   16.614730975456006        5.0793063508303149       -5.9554695731340752        119.08559467954410     
   17.763731456383365        5.0793064040039839       -5.9556924501353361        125.04128712967943     
   18.912731937310724        5.0793063741809101       -5.9559380839221605        130.99722521360158     
   20.130672447093726        5.0793062371914077       -5.9562260797603930        136.95345129336198     
   21.421689387463708        5.0793059580610738       -5.9565644131517868        142.91001570651378     
   22.790167344255888        5.0793054920245888       -5.9569620534073806        148.86697775992116     
   24.158645301048068        5.0793048351639936       -5.9574000427819334        154.82437780270308     
   25.609231935247781        5.0793038988120136       -5.9579105964397900        160.78228839914289     
   27.146853767499476        5.0793026049658270       -5.9585041526155686        166.74079255175846     
   28.684475599751170        5.0793009776179181       -5.9591497459352309        172.69994229769370     
   30.314354741937969        5.0792988390491907       -5.9598913180947592        178.65983361578844     
   32.042026632655976        5.0792960610612452       -5.9607393277348759        184.62057294352331     
   33.769698523373982        5.0792927259545646       -5.9616461356630088        190.58221907918633     
   35.601030727535068        5.0792885107433872       -5.9626687878783828        196.54488786706472     
   37.432362931696154        5.0792835630054398       -5.9637475938457642        202.50863546091048     
   39.373575068106902        5.0792774348312975       -5.9649471951036448        208.47358265601412     
   41.314787204517650        5.0792703654045326       -5.9661953832836607        214.43977803929778     
   43.372472069113044        5.0792617491037619       -5.9675636510195504        220.40734169031734     
   45.430156933708439        5.0792519493502244       -5.9689675352257900        226.37630922554314     
   47.611302890179559        5.0792401648307672       -5.9704841018681130        232.34679332741126     
   49.792448846650679        5.0792269225460807       -5.9720177385383595        238.31881106594963     
   52.104463560510062        5.0792111822504307       -5.9736492433406569        244.29246030929028     
   54.416478274369446        5.0791936807712705       -5.9752738672129206        250.26773417650321     
   56.867213871060393        5.0791730905007073       -5.9769737278600541        256.24470790436328     
   59.317949467751340        5.0791504112013151       -5.9786378693350102        262.22334577369827     
   61.915729200243746        5.0791239745061993       -5.9803467596460846        268.20369253334434     
   64.513508932736158        5.0790951026501228       -5.9819869961706438        274.18567952951497     
   67.111288665228571        5.0790637670451639       -5.9835463486300995        280.16922587814508     
   69.864935181670518        5.0790277601916181       -5.9850953330951349        286.15432121124024     
   72.618581698112465        5.0789889507611399       -5.9865291252977748        292.14085033653799     
   75.537447005540926        5.0789446618411622       -5.9879078377635127        298.12875817430148     
   78.456312312969388        5.0788972317836647       -5.9891357376260235        304.11789391192752     
   81.375177620397849        5.0788466802796171       -5.9902047678973158        310.10809867982482     
   84.294042927826311        5.0787930359875935       -5.9911084318595123        316.09920711168434     
   87.212908235254773        5.0787363354873598       -5.9918416543070263        322.09104876599139     
   90.131773542683234        5.0786766222975412       -5.9924006441736397        328.08344941016503     
   93.050638850111696        5.0786139459608775       -5.9927827613982627        334.07623217156328     
   95.969504157540158        5.0785483613694451       -5.9929864317231978        340.06921860328646     
   99.063501383414334        5.0784756444753683       -5.9930009803498532        346.06221958363631     
   102.34313844284097        5.0783950620356046       -5.9927904680763397        352.05501005171266     
   105.81955372583319        5.0783058219432391       -5.9923151400047425        358.04732519171739     
   109.50455392580494        5.0782070719630408       -5.9915313217825759        364.03885651349998     
   113.41065413777501        5.0780978991027395       -5.9903913590636204        370.02924787256359     
   117.55112036246328        5.0779773297258561       -5.9888436073288824        376.01809147989246     
   121.94001456063285        5.0778443305074177       -5.9868324801704214        382.00492396006291     
   126.59224241069259        5.0776978103239356       -5.9842985659584347        387.98922252602136     
   131.52360393175593        5.0775366231520023       -5.9811788258952561        393.97040135191662     
   136.75084714408305        5.0773595720239335       -5.9774068915170107        399.94780824343366     
   142.29172494914980        5.0771654140511524       -5.9729134875617751        405.92072173099541     
   148.16505542252054        5.0769528660026024       -5.9676269667821087        411.88834869777753     
   154.03838589589128        5.0767341005182134       -5.9618499045463906        417.85019860232393     
   159.91171636926202        5.0765096161918031       -5.9556149979146493        423.80581360023859     
   165.78504684263277        5.0762798864423830       -5.9489546240318614        429.75476822427044     
   171.65837731600351        5.0760453588658478       -5.9419007949720548        435.69666901924251     
   177.53170778937425        5.0758064549362336       -5.9344851666050955        441.63115418584761     
   183.40503826274499        5.0755635699710417       -5.9267390870904784        447.55789327293809     
   189.27836873611574        5.0753170736298685       -5.9186936675091042        453.47658694044719     
   195.50409903788875        5.0750521368363337       -5.9098660751726353        459.38645301561985     
   202.10337315776815        5.0747676470723269       -5.9002163003488475        465.28666931596871     
   209.09860372484030        5.0744624597947423       -5.8897114269095381        471.17638074287822     
   216.51354812593678        5.0741353962642837       -5.8783292934094415        477.05471003628764     
   224.37338919109905        5.0737852375660433       -5.8660634141172343        482.92077345040485     
   232.23323025626132        5.0734320705821050       -5.8536749181734811        488.77444836857831     
   240.09307132142359        5.0730762880600651       -5.8412439851558151        494.61569235373412     
   247.95291238658587        5.0727182151837225       -5.8288529614331255        500.44454531516726     
   255.81275345174814        5.0723581118018499       -5.8165865122339406        506.26113182740119     
   263.67259451691041        5.0719961746162756       -5.8045316949259789        512.06566352232721     
   271.53243558207265        5.0716325393409383       -5.7927779555357404        517.85844147786293     
   279.39227664723489        5.0712672828461605       -5.7814170526023210        523.63985853046529     
   287.25211771239714        5.0709004253028898       -5.7705429140295017        529.41040144449482     
   295.11195877755938        5.0705319323406259       -5.7602514337494375        535.17065287824425     
   302.97179984272162        5.0701617172309330       -5.7506402158119796        540.92129309405618     
   310.83164090788387        5.0697896431058442       -5.7418082739518885        546.66310136800803     
   318.69148197304611        5.0694155252177424       -5.7338556948627115        552.39695706287080     
   326.55132303820835        5.0690391334036233       -5.7268832248122274        558.12384028768304     
   334.88275456728036        5.0686372741701335       -5.7207141577762179        563.84455444545927     
   343.71407198809669        5.0682076071540862       -5.7156909041287571        569.56024534958806     
   353.07526845416197        5.0677473887062998       -5.7122388710733647        575.27248422066145     
   362.99813670819117        5.0672533723440427       -5.7108825461573005        580.98336676681879     
   372.92100496222037        5.0667522685779520       -5.7120236282672883        586.69539039508606     
   382.84387321624956        5.0662431036551627       -5.7158514715055011        592.41124186659158     
   392.76674147027876        5.0657248408771434       -5.7225490608135399        598.13379092740513     
   402.68960972430796        5.0651963886159548       -5.7322920154383565        603.86608294284349     
   412.61247797833715        5.0646566082143787       -5.7452476959453005        609.61133063878879     
   422.53534623236635        5.0641043217215183       -5.7615744212352800        615.37290506002410     
   432.45821448639555        5.0635383194184165       -5.7814207991331843        621.15432585915732     
   442.38108274042474        5.0629573670918688       -5.8049251718426662        626.95925103100001     
   451.31166416905103        5.0624214881673240       -5.8291360994194132        632.78838713041944     
   460.77808048339489        5.0618377300660811       -5.8583370739419189        638.64672420436136     
   470.81248177659938        5.0611999668546135       -5.8933749691953530        644.54009917355677     
   480.84688306980388        5.0605419136045864       -5.9325965316664799        650.47269570522326     
   490.88128436300838        5.0598622673331981       -5.9760884445920404        656.44878414981531     
   500.91568565621287        5.0591597372321448       -6.0239255084730692        662.47270965828841     
   510.95008694941737        5.0584330497281877       -6.0761707806186260        668.54888043890708     
   520.98448824262186        5.0576809531055487       -6.1328757908553015        674.68175622976241     
   531.01888953582636        5.0569022216918658       -6.1940808241695482        680.87583705393195     
   541.05329082903086        5.0560956596136615       -6.2598152611420241        687.13565231507403     
   551.08769212223535        5.0552601041309728       -6.3300979672938622        693.46575028236794     
   561.12209341543985        5.0543944285638913       -6.4049377228759363        699.87068800524389     
   571.15649470864435        5.0534975448263610       -6.4843336851970728        706.35502169044094     
   581.19089600184884        5.0525684055845712       -6.5682758761463065        712.92329756658728     
   591.22529729505334        5.0516060060588952       -6.6567456882219993        719.58004325480931     
   601.25969858825783        5.0506093854893983       -6.7497164029584455        726.32975965776780     
   611.29409988146233        5.0495776246848409       -6.8471545447423399        733.17691420251015     
   621.93056525225916        5.0484434454200713       -6.9554081354711217        740.13232233798124     
   633.20521854530375        5.0471945398915237       -7.0756708285006846        747.20799316648197     
   645.15635103593104        5.0458169739147971       -7.2092502313042628        754.41724339778625     
   657.82455147599592        5.0442949879333003       -7.3575720172364765        761.77481541502277     
   670.49275191606080        5.0427099331878820       -7.5124871484345039        769.28730256345727     
   683.92104438252954        5.0409575307902239       -7.6839275062203010        776.97123006967763     
   698.15503439698648        5.0390173400644116       -7.8735545342289308        784.84478460390653     
   713.24306381231077        5.0368663511130469       -8.0831552053904048        792.92793980929696     
   729.23637499255460        5.0344787023167523       -8.3146418448041732        801.24258165410117     
   746.18928484361300        5.0318254018524264       -8.5700452322511858        809.81262688635240     
   763.14219469467139        5.0290484906553417       -8.8350413565513275        818.64766824290371     
   780.09510454572978        5.0261470629515363       -9.1091859665204034        827.75685420942409     
   797.04801439678818        5.0231204915535193       -9.3920318792948709        837.14888608871900     
   814.00092424784657        5.0199684107484606       -9.6831316097696956        846.83201769848870     
   830.95383409890496        5.0166906994097964       -9.9820395895493199        856.81405728803804     
   847.90674394996336        5.0132874645345025       -10.288314009411074        867.10237129744917     
   864.85965380102175        5.0097590253539321       -10.601518328634254        877.70388962608342     
   881.81256365208014        5.0061058981127040       -10.921222500134265        888.62511212621769     
   898.76547350313854        5.0023287815638504       -11.247003960298182        899.87211608651592     
   915.71838335419693        4.9984285431935813       -11.578448427403199        911.45056451391906     
   932.67129320525532        4.9944062061661709       -11.915150544795759        923.36571505871484     
   949.62420305631372        4.9902628945304741       -12.256721386350270        935.62243644506509     
   967.59428749843562        4.9857366502034219       -12.623791203554331        948.24622764861942     
   986.64257700708492        4.9807899335018080       -13.017978090343785        961.26420573896326     
   1006.8337638862531        4.9753818260916054       -13.440917257285296        974.70512299624852     
   1027.0249507654214        4.9698119095835702       -13.868377771144758        988.57350076739328     
   1047.2161376445897        4.9640831130174341       -14.299803708638992        1002.8733044760323     
   1068.6187957365080        4.9578359960059553       -14.760899688024191        1017.6342041640565     
   1090.0214538284263        4.9514181392406238       -15.225172166216403        1032.8593763302729     
   1111.4241119203446        4.9448336062864549       -15.692030487591417        1048.5514068178643     
   1132.8267700122628        4.9380865742721349       -16.160912809157846        1064.7123196270222     
   1154.2294281041811        4.9311813115674745       -16.631286454837028        1081.3436060818592     
   1175.6320861960994        4.9241221563081892       -17.102648233939451        1098.4462543157986     
   1197.0347442880177        4.9169134958783003       -17.574524619624363        1116.0207789354229     
   1218.4374023799360        4.9095597475780384       -18.046471684331884        1134.0672506197548     
   1239.8400604718543        4.9020653407513821       -18.518074724554918        1152.5853253443097     
   1261.2427185637725        4.8944347006126083       -18.988947561816705        1171.5742729061265     
   1282.6453766556908        4.8866722339143696       -19.458731560558920        1191.0330044666853     
   1304.0480347476091        4.8787823164750606       -19.927094441380394        1210.9600989080657     
   1325.4506928395274        4.8707692824651820       -20.393728983369098        1231.3538278914348     
   1346.8533509314457        4.8626374152650458       -20.858351703862912        1252.2121795952976     
   1368.2560090233640        4.8543909396591767       -21.320701585139560        1273.5328811804372     
   1389.6586671152822        4.8460340151207317       -21.780538895208615        1295.3134200756458     
   1411.0613252072005        4.8375707299681512       -22.237644118465884        1317.5510641941116     
   1432.4639832991188        4.8290050962522937       -22.691816971076662        1340.2428811651882     
   1453.8666413910371        4.8203410453318334       -23.142875445302540        1363.3857566104907     
   1475.2692994829554        4.8115824241780292       -23.590654822121344        1386.9764114326122     
   1496.6719575748737        4.8027329924887550       -24.035006610900059        1411.0114180435123     
   1518.0746156667919        4.7937964206811152       -24.475797406053001        1435.4872154495654     
   1539.4772737587102        4.7847762887864072       -24.912907679729614        1460.4001231292950     
   1560.8799318506285        4.7756760862096916       -25.346230549956775        1485.7463536792518     
   1582.2825899425468        4.7664990621584060       -25.775684001742729        1511.5220376809946     
   1604.9694075199802        4.7566893570242978       -26.226428447425715        1537.7484661284202     
   1627.6562250974137        4.7468012646698963       -26.672620808408563        1564.4210869368287     
   1650.3430426748471        4.7368385030375153       -27.114182696677318        1591.5352696335060     
   1673.0298602522805        4.7268046842890286       -27.551045599853232        1619.0863152333593     
   1695.7166778297139        4.7167031384779889       -27.983165819895003        1647.0694810532543     
   1719.7647044617934        4.7059238294523587       -28.435793992406161        1675.5052750456605     
   1743.8127310938728        4.6950765884128902       -28.882969761447324        1704.3882448071079     
   1767.8607577259522        4.6841652077320743       -29.324656077244313        1733.7129008843522     
