 #              _____________________  _______________________             #
 #              ___  __ \__  __ \_  / / /_  /___  ____/_  ___/             #
 #              __  / / /_  /_/ /  / / /_  __/_  __/  _____ \              #
 #              _  /_/ /_  _, _// /_/ / / /_ _  /___  ____/ /              #
 #              /_____/ /_/ |_| \____/  \__/ /_____/  /____/               #
 #                                                                         #
  
 #        time                      T            heat flux [W.L-2]   in    x              directions   cumulative flux
 #-----------------------------------------------------------------------------------------------

   0.0000000000000000        5.0792999999999999       -5.9532673649915901        5.9532673649915901     
   1.0000000000000000        5.0793006225315152       -5.9534546619163971        11.906722026907987     
   1.8999999999999999        5.0793011544026170       -5.9536102213364117        17.860332248244397     
   2.7100000000000000        5.0793016116078888       -5.9537407349444234        23.814072983188822     
   3.5200000000000000        5.0793020486711598       -5.9538628186583367        29.767935801847159     
   4.3300000000000001        5.0793024667243678       -5.9539775535044495        35.721913355351610     
   5.1400000000000006        5.0793028666836193       -5.9540860446118966        41.675999399963509     
   5.9500000000000011        5.0793032492382126       -5.9541894208225070        47.630188820786017     
   6.7600000000000016        5.0793036148403026       -5.9542888317011773        53.584477652487195     
   7.5700000000000021        5.0793039636956774       -5.9543854426657639        59.538863095152962     
   8.3800000000000026        5.0793042957559447       -5.9544804288110473        65.493343523964015     
   9.1900000000000031        5.0793046107123354       -5.9545749679028370        71.447918491866858     
   10.000000000000004        5.0793049079912835       -5.9546702329354346        77.402588724802285     
   10.810000000000004        5.0793051867540369       -5.9547673851063472        83.357356109908636     
   11.668600000000005        5.0793054600958527       -5.9548738430662329        89.312229952974874     
   12.578716000000005        5.0793057229331282       -5.9549921658359057        95.267222118810778     
   13.543438960000005        5.0793059683694430       -5.9551255396555538        101.22234765846633     
   14.508161920000004        5.0793061771909702       -5.9552685790688731        107.17761623753520     
   15.530768257600005        5.0793063526551023       -5.9554329731941609        113.13304921072937     
   16.614730975456006        5.0793064806822867       -5.9556236838090548        119.08867289453842     
   17.763731456383365        5.0793065427181263       -5.9558465817218194        125.04451947626023     
   18.912731937310724        5.0793065217346651       -5.9560922354262145        131.00061171168645     
   20.130672447093726        5.0793063940772498       -5.9563802482758339        136.95699195996227     
   21.421689387463708        5.0793061247908113       -5.9567185935668681        142.91371055352914     
   22.790167344255888        5.0793056691073986       -5.9571162322411206        148.87082678577028     
   24.158645301048068        5.0793050225499847       -5.9575542134891606        154.82838099925942     
   25.609231935247781        5.0793040970356333       -5.9580647434767045        160.78644574273613     
   27.146853767499476        5.0793028145376784       -5.9586582446020211        166.74510398733815     
   28.684475599751170        5.0793011984579026       -5.9593037679716989        172.70440775530986     
   30.314354741937969        5.0792990716979780       -5.9600452358313465        178.66445299114122     
   32.042026632655976        5.0792963060039122       -5.9608930798941415        184.62534607103535     
   33.769698523373982        5.0792929830725884       -5.9617996946508791        190.58714576568624     
   35.601030727535068        5.0792887804843669       -5.9628220677500625        196.54996783343631     
   37.432362931696154        5.0792838452281650       -5.9639005578552480        202.51386839129157     
   39.373575068106902        5.0792777299371554       -5.9650997283694371        208.47896811966100     
   41.314787204517650        5.0792706732314539       -5.9663474394959684        214.44531555915697     
   43.372472069113044        5.0792620700001567       -5.9677150827898462        220.41303064194682     
   45.430156933708439        5.0792522831369666       -5.9691182869425337        226.38214892888936     
   47.611302890179559        5.0792405117992798       -5.9706339911358741        232.35278292002525     
   49.792448846650679        5.0792272825059896       -5.9721667014496393        238.32494962147490     
   52.104463560510062        5.0792115554355810       -5.9737970613801021        244.29874668285501     
   54.416478274369446        5.0791940669877107       -5.9754204699286744        250.27416715278369     
   56.867213871060393        5.0791734899279666       -5.9771188611213066        256.25128601390497     
   59.317949467751340        5.0791508236510330       -5.9787814585627492        262.23006747246774     
   61.915729200243746        5.0791244001108788       -5.9804885173286300        268.21055598979638     
   64.513508932736158        5.0790955410043210       -5.9821267905612077        274.19268278035759     
   67.111288665228571        5.0790642179965486       -5.9836841086697659        280.17636688902735     
   69.864935181670518        5.0790282238399636       -5.9852307438182200        286.16159763284554     
   72.618581698112465        5.0789894269820719       -5.9866621186947766        292.14825975154031     
   75.537447005540926        5.0789451507209566       -5.9880380781227256        298.13629782966302     
   78.456312312969388        5.0788977329635072       -5.9892631080983634        304.12556093776141     
   81.375177620397849        5.0788471934321233       -5.9903291625675044        310.11589010032890     
   84.294042927826311        5.0787935608157238       -5.9912297555889680        316.10711985591786     
   87.212908235254773        5.0787368717231454       -5.9919598224807187        322.09907967839860     
   90.131773542683234        5.0786771697006419       -5.9925155823676386        328.09159526076621     
   93.050638850111696        5.0786145043170521       -5.9928944049863802        334.08448966575259     
   95.969504157540158        5.0785489303179583       -5.9930946837621111        340.07758434951472     
   98.888369464968619        5.0784805068485168       -5.9931157165072939        346.07070006602203     
   101.80723477239708        5.0784092967433523       -5.9929575945571809        352.06365766057922     
   104.72610007982554        5.0783353658810126       -5.9926211007459838        358.05627876132519     
   107.64496538725400        5.0782587825998302       -5.9921076163169413        364.04838637764215     
   110.56383069468247        5.0781796171716636       -5.9914190366246256        370.03980541426677     
   113.48269600211093        5.0780979413296921       -5.9905576953168529        376.03036310958362     
   116.40156130953939        5.0780138278464388       -5.9895262965836187        382.01988940616724     
   119.32042661696785        5.0779273501580668       -5.9883278549578653        388.00821726112508     
   122.23929192439631        5.0778385820312266       -5.9869656421524704        393.99518290327757     
   125.15815723182477        5.0777475972687087       -5.9854431403555441        399.98062604363309     
   128.07702253925325        5.0776544694504802       -5.9837640014459144        405.96439004507903     
   130.99588784668171        5.0775592717067486       -5.9819320115799659        411.94632205665897     
   133.91475315411017        5.0774620765199936       -5.9799510606315813        417.92627311729058     
   136.83361846153863        5.0773629555530988       -5.9778251160030136        423.90409823329361     
   139.75248376896710        5.0772619795009026       -5.9755582003421823        429.87965643363577     
   142.67134907639556        5.0771592179627545       -5.9731543727517549        435.85281080638754     
   145.59021438382402        5.0770547393338115       -5.9706177130984237        441.82342851948596     
   148.50907969125248        5.0769486107130417       -5.9679523090724826        447.79138082855843     
   151.42794499868094        5.0768408978260817       -5.9651622456761579        453.75654307423457     
   154.34681030610940        5.0767316649612377       -5.9622515968513348        459.71879467108590     
   157.26567561353787        5.0766209749171267       -5.9592244189909218        465.67801909007682     
   160.18454092096633        5.0765088889605599       -5.9560847460934214        471.63410383617025     
   163.10340622839479        5.0763954667934268       -5.9528365863577877        477.58694042252802     
   166.02227153582325        5.0762807665274803       -5.9494839200306879        483.53642434255869     
   168.94113684325171        5.0761648446659837       -5.9460306983366191        489.48245504089533     
   171.86000215068017        5.0760477560913655       -5.9424808433496068        495.42493588424492     
   174.77886745810864        5.0759295542023422       -5.9388382242082196        501.36377410845313     
   177.87286468398281        5.0758030704858337       -5.9348774451094100        507.29865155356254     
   181.15250174340943        5.0756677314783589       -5.9305725489191579        513.22922410248168     
   184.62891702640167        5.0755229300477813       -5.9258961684751208        519.15512027095679     
   188.31391722637343        5.0753680245836010       -5.9208196487857432        525.07593991974250     
   192.22001743834349        5.0752023380964033       -5.9153132988216797        530.99125321856422     
   195.73550762911654        5.0750520890373476       -5.9102626688763307        536.90151588744061     
   198.89944880081228        5.0749159995295736       -5.9056450034927463        542.80716089093335     
   202.06338997250802        5.0747790934630643       -5.9009600212289079        548.70812091216226     
   205.22733114420376        5.0746414175197723       -5.8962125089915389        554.60433342115380     
   208.39127231589950        5.0745030162927751       -5.8914072646307325        560.49574068578454     
   210.41619466578479        5.0744141537622163       -5.8883095263329830        566.38405021211747     
   212.56261235666318        5.0743196515141946       -5.8850022699848203        572.26905248210232     
   214.70903004754157        5.0742248539304660       -5.8816728742368092        578.15072535633908     
   216.85544773841997        5.0741297732250494       -5.8783228543212722        584.02904821066033     
   219.00186542929836        5.0740344211879549       -5.8749537318598888        589.90400194252027     
   221.14828312017676        5.0739388091889479       -5.8715670356457013        595.77556897816601     
   223.29470081105515        5.0738429482265044       -5.8681642826577356        601.64373326082375     
   225.56990356338625        5.0737410682972213       -5.8645412077807473        607.50827446860455     
   227.84510631571735        5.0736389331154284       -5.8609038081440721        613.36917827674858     
   230.12030906804844        5.0735365541790616       -5.8572539497821410        619.22643222653073     
   232.39551182037954        5.0734339425264636       -5.8535934903471469        625.08002571687791     
   234.80722673785050        5.0733249251037105       -5.8497037731960431        630.92972949007401     
   237.36364455036971        5.0732091008282900       -5.8455725656907571        636.77530205576477     
   240.07344743164009        5.0730860441815713       -5.8411876404819214        642.61648969624673     
   242.94583848578668        5.0729553037769231       -5.8365369831413147        648.45302667938802     
   245.99057300318208        5.0728164008020400       -5.8316090632328148        654.28463574262082     
   249.21799159162120        5.0726688273004310       -5.8263931846209234        660.11102892724170     
   252.63905529536666        5.0725120442439451       -5.8208799345217361        665.93190886176342     
   256.26538282133686        5.0723454793308527       -5.8150617552614046        671.74697061702477     
   260.10928999886528        5.0721685244211496       -5.8089336681874952        677.55590428521225     
   264.18383160704542        5.0719805324908647       -5.8024941857105414        683.35839847092279     
   268.50284571171636        5.0717808139483802       -5.7957464553221403        689.15414492624495     
   273.08100066266752        5.0715686321058104       -5.7886996887145816        694.94284461495954     
   277.93384491067576        5.0713431974050938       -5.7813710125806388        700.72421562754016     
   282.78668915868400        5.0711172501035122       -5.7742054741600830        706.49842110170027     
   287.63953340669224        5.0708907910899592       -5.7672257842029859        712.26564688590327     
   292.49237765470048        5.0706638131039705       -5.7604550243779364        718.02610191028123     
   297.34522190270872        5.0704363009168700       -5.7539166241645425        723.78001853444573     
   302.19806615071695        5.0702082315154593       -5.7476343343756469        729.52765286882141     
   307.05091039872519        5.0699795742887588       -5.7416321976124154        735.26928506643378     
   311.90375464673343        5.0697502912182468       -5.7359345159892898        741.00521958242302     
   316.75659889474167        5.0695203370718831       -5.7305658164280038        746.73578539885102     
   321.60944314274991        5.0692896596021999       -5.7255508138616085        752.46133621271258     
   326.46228739075815        5.0690581997486008       -5.7209143726561216        758.18225058536871     
   331.31513163876639        5.0688258918439706       -5.7166814665712860        763.89893205193994     
   336.16797588677463        5.0685926638255863       -5.7128771375657283        769.61180918950572     
   341.02082013478287        5.0683584374502821       -5.7095264537487962        775.32133564325454     
   345.87366438279111        5.0681231285137374       -5.7066544667629238        781.02799011001741     
   350.72650863079934        5.0678866470736947       -5.7042861688786903        786.73227627889605     
   355.57935287880758        5.0676488976768734       -5.7024464500584493        792.43472272895451     
   360.43219712681582        5.0674097795892807       -5.7011600552453006        798.13588278419979     
   365.28504137482406        5.0671691870295934       -5.7004515420996418        803.83633432629938     
   370.13788562283230        5.0669270094052266       -5.7003452394055909        809.53667956570496     
   374.99072987084054        5.0666831315507039       -5.7008652063509109        815.23754477205591     
   379.84357411884878        5.0664374339678915       -5.7020351928529758        820.93957996490894     
   384.69641836685702        5.0661897930676414       -5.7038786011078688        826.64345856601676     
   389.54926261486526        5.0659400814123963       -5.7064184485026956        832.34987701451951     
   394.40210686287350        5.0656881679592756       -5.7096773320291900        838.05955434654868     
   399.25495111088173        5.0654339183031540       -5.7136773943081947        843.77323174085689     
   404.10779535888997        5.0651771949192792       -5.7184402913309391        849.49167203218781     
   408.96063960689821        5.0649178574049269       -5.7239871619893608        855.21565919417719     
   413.81348385490645        5.0646557627196369       -5.7303385994757301        860.94599779365296     
   418.66632810291469        5.0643907654235729       -5.7375146245941817        866.68351241824712     
   423.51917235092293        5.0641227173611716       -5.7455348367829684        872.42904725503013     
   428.66318725381166        5.0638349815092818       -5.7550067732927799        878.18405402832286     
   433.80720215670038        5.0635434598872902       -5.7654709297304514        883.94952495805330     
   438.95121705958911        5.0632479703564721       -5.7769480081279951        889.72647296618129     
   444.09523196247784        5.0629483292650068       -5.7894578524392601        895.51593081862052     
   449.23924686536657        5.0626443517383644       -5.8030194294876107        901.31895024810808     
   454.38326176825530        5.0623358519630131       -5.8176508126295374        907.13660106073758     
   459.52727667114402        5.0620226434630702       -5.8333691681023065        912.96997022883988     
   464.67129157403275        5.0617045393694715       -5.8501907439630489        918.82016097280291     
   467.96346111188154        5.0614988984903677       -5.8614125328281101        924.68157350563104     
   471.25563064973034        5.0612911543183321       -5.8730942528478254        930.55466775847890     
   474.54780018757913        5.0610812578369861       -5.8852396957669235        936.43990745424583     
   477.83996972542792        5.0608691600742182       -5.8978524962297518        942.33775995047563     
   481.13213926327671        5.0606548121282637       -5.9109361314500983        948.24869608192569     
   484.42430880112551        5.0604381651932249       -5.9244939210176897        954.17319000294333     
   487.71647833897430        5.0602191705840145       -5.9385290268628683        960.11171902980618     
   491.00864787682309        5.0599977797606552       -5.9530444533570996        966.06476348316323     
   494.30081741467188        5.0597739443519947       -5.9680430475677033        972.03280653073091     
   497.59298695252068        5.0595476161787767       -5.9835274996402354        978.01633403037113     
   500.88515649036947        5.0593187472761008       -5.9995003433232128        984.01583437369436     
   504.17732602821826        5.0590872899152339       -6.0159639566114826        990.03179833030583     
   507.46949556606705        5.0588531966247992       -6.0329205625248630        996.06471889283068     
   510.76166510391585        5.0586164195383976       -6.0503724124177536        1002.1150913052485     
   514.25136481403558        5.0583623651406704       -6.0694299204946729        1008.1845212257432     
   517.95044650676255        5.0580895512635058       -6.0902609274694637        1014.2747821532126     
   521.87147310105308        5.0577963398240895       -6.1130523506679291        1020.3878345038805     
   526.02776129100107        5.0574809171514108       -6.1380123991112976        1026.5258469029918     
   530.43342677234591        5.0571412715450723       -6.1653730280481209        1032.6912199310400     
   535.10343218257140        5.0567751676686594       -6.1953926517750748        1038.8866125828151     
   540.05363791741047        5.0563801173276151       -6.2283591329614607        1045.1149717157766     
   545.30085599633992        5.0559533461245021       -6.2645930653364506        1051.3795647811130     
   550.86290716000508        5.0554917554229100       -6.3044513642743070        1057.6840161453872     
   556.75868139349018        5.0549918789856738       -6.3483311763431098        1064.0323473217304     
   563.00820208098435        5.0544498335844441       -6.3966741140076042        1070.4290214357379     
   569.63269400972820        5.0538612628072075       -6.4499708150985686        1076.8789922508365     
   576.65465545419670        5.0532212732202284       -6.5087658181773635        1083.3877580690139     
