 #              _____________________  _______________________             #
 #              ___  __ \__  __ \_  / / /_  /___  ____/_  ___/             #
 #              __  / / /_  /_/ /  / / /_  __/_  __/  _____ \              #
 #              _  /_/ /_  _, _// /_/ / / /_ _  /___  ____/ /              #
 #              /_____/ /_/ |_| \____/  \__/ /_____/  /____/               #
 #                                                                         #
  
 #        time                      T            heat flux [W.L-2]   in    x              directions   cumulative flux
 #-----------------------------------------------------------------------------------------------

   0.0000000000000000        4.6891999999999996       -6.9455237246944330        6.9455237246944330     
   1.0000000000000000        4.3845732119584460       -100.96077530731976        107.90629903201420     
   1.8999999999999999        4.1325574709421140       -176.56009335527162        284.46639238728585     
   2.7100000000000000        3.9220547675809985       -237.99581291002070        522.46220529730658     
   3.5200000000000000        3.7258861056499204       -293.61798682263492        816.08019211994156     
   4.3300000000000001        3.5428310579971924       -343.96528232587985        1160.0454744458214     
   5.1400000000000006        3.3717790966937344       -389.52780836703880        1549.5732828128603     
   5.9500000000000011        3.2117198118700516       -430.75099164334466        1980.3242744562049     
   6.7600000000000016        3.0617339151543135       -468.03929108253084        2448.3635655387357     
   7.5700000000000021        2.9209849882875978       -501.75970960330716        2950.1232751420430     
   8.3800000000000026        2.7887119328925873       -532.24508141088427        3482.3683565529273     
   9.1900000000000031        2.6642220751688996       -559.79712630782910        4042.1654828607561     
   10.000000000000004        2.5468848787903395       -584.68927137560206        4626.8547542363585     
   10.810000000000004        2.4361122054701907       -607.17442788860069        5234.0291821249593     
   11.668600000000005        2.3253127468881107       -628.61139013898958        5862.6405722639493     
   12.578716000000005        2.2146711619710593       -648.91272220504175        6511.5532944689912     
   13.543438960000005        2.1043730940686265       -667.99548913779017        7179.5487836067814     
   14.508161920000004        2.0005855252151559       -684.85775050823611        7864.4065341150172     
   15.530768257600005        1.8970419183468283       -700.57018777758412        8564.9767218926008     
   16.614730975456006        1.7938708590030674       -715.08084231214036        9280.0575642047406     
   17.763731456383365        1.6911923661247934       -728.34630728386833        10008.403871488608     
   18.912731937310724        1.5947192656781990       -739.70463878786677        10748.108510276475     
   20.130672447093726        1.4985345995394521       -749.94034344238992        11498.048853718865     
   21.421689387463708        1.4027091504121791       -759.03623756308843        12257.085091281953     
   22.790167344255888        1.3073014659546107       -766.98451032610444        13024.069601608058     
   24.158645301048068        1.2176172903918165       -773.41964061530007        13797.489242223359     
   25.609231935247781        1.1280777519119498       -778.86186393612820        14576.351106159487     
   27.146853767499476        1.0387120545958124       -783.31904794636171        15359.670154105848     
   28.684475599751170       0.95451554766229085       -786.60545017928087        16146.275604285129     
   30.314354741937969       0.87021853658790305       -789.05849928024634        16935.334103565376     
   32.042026632655976       0.78583655403247898       -790.69331725792654        17726.027420823302     
   33.769698523373982       0.70612202083012643       -791.46271120371330        18517.490132027015     
   35.601030727535068       0.62607241050115170       -791.54934989609524        19309.039481923111     
   37.432362931696154       0.55023261007694479       -790.97471325712911        20100.014195180240     
   39.373575068106902       0.47385126251720494       -789.82915966589883        20889.843354846140     
   41.314787204517650       0.40129842617785871       -788.18780064455939        21678.031155490698     
   43.372472069113044       0.32803737907438874       -786.06609417239019        22464.097249663089     
   45.430156933708439       0.25828965941496829       -783.58099832997550        23247.678247993066     
   47.611302890179559       0.18770207463598276       -780.68767878115523        24028.365926774222     
   49.792448846650679       0.12036864728055469       -777.53580345857256        24805.901730232796     
   52.104463560510062        5.2093505722491829E-002  -774.03235965774695        25579.934089890543     
   54.416478274369446       -1.3140117457128175E-002  -770.35267725176379        26350.286767142308     
   56.867213871060393       -7.9392657123397770E-002  -766.36550699299323        27116.652274135300     
   59.317949467751340      -0.14277831427309173       -893.45000095085118        28010.102275086152     
   61.915729200243746      -0.20724022864823971       -959.72560002643399        28969.827875112587     
   64.513508932736158      -0.26895511767896807       -1046.1520068516475        30015.979881964235     
   67.111288665228571      -0.32818255208228347       -1144.0676798910490        31160.047561855285     
   69.864935181670518      -0.38859442276781248       -1237.8288670642346        32397.876428919521     
   72.618581698112465      -0.44660197562456666       -1287.3471839068670        33685.223612826390     
   75.537447005540926      -0.45028237113301994       -1270.5070746182155        34955.730687444608     
   78.456312312969388      -0.45493421002715706       -1255.1232786282897        36210.853966072900     
   81.375177620397849      -0.46013136273510596       -1240.5670236682824        37451.420989741186     
   84.294042927826311      -0.46557291080084451       -1226.4630338145555        38677.884023555744     
   87.212908235254773      -0.47105478573925103       -1212.6164067992781        39890.500430355023     
   90.131773542683234      -0.47644198329500537       -1198.9517123029593        41089.452142657981     
   93.050638850111696      -0.48164816940487976       -1185.4651228476569        42274.917265505639     
   95.969504157540158      -0.48662099934491432       -1100.3283793214100        43375.245644827046     
   98.888369464968619      -0.49133168042876546       -1009.8567099413769        44385.102354768424     
   101.80723477239708      -0.49576761317838447       -938.42768605801507        45323.530040826437     
   104.72610007982554      -0.49992723401173456       -881.32479543373483        46204.854836260172     
   107.64496538725400      -0.50381641855659087       -835.11560673528220        47039.970442995458     
   110.56383069468247      -0.50744598530516238       -797.29284507460238        47837.263288070062     
   113.48269600211093      -0.51082997242458561       -766.01260501358104        48603.275893083643     
   116.40156130953939      -0.51398445651271618       -739.90723166433031        49343.183124747971     
   119.32042661696785      -0.51692675039633140       -717.95256606056080        50061.135690808529     
   122.23929192439631      -0.51967486531054596       -699.37376209551860        50760.509452904051     
   125.15815723182477      -0.52224715672041788       -683.57815747166831        51444.087610375718     
   128.07702253925325      -0.52466209684966059       -670.10705418167333        52114.194664557392     
   130.99588784668171      -0.52693813367807152       -658.60073299058206        52772.795397547976     
   133.91475315411017      -0.52909360789248716       -648.77277129962886        53421.568168847603     
   136.83361846153863      -0.53114670752660464       -640.39094768631480        54061.959116533915     
   139.75248376896710      -0.53311544585523796       -633.26285688453697        54695.221973418455     
   142.67134907639556      -0.53501765225405251       -627.22494196638002        55322.446915384833     
   145.59021438382402      -0.53687096871037088       -622.13405717175272        55944.580972556585     
   148.50907969125248      -0.53869284683120955       -617.86096028244106        56562.441932839029     
   151.42794499868094      -0.54050054178842666       -614.28533419146481        57176.727267030496     
   154.34681030610940      -0.54231110083623035       -611.29207717439294        57788.019344204891     
   157.26567561353787      -0.54414134494668032       -608.76869562373474        58396.788039828629     
   160.18454092096633      -0.54600784280855530       -606.60369162145741        59003.391731450087     
   163.10340622839479      -0.54792687697219711       -604.68586764808038        59608.077599098164     
   166.02227153582325      -0.54991440232973421       -602.90447759627273        60210.982076694439     
   168.94113684325171      -0.55198599742048859       -601.15014250757838        60812.132219202016     
   171.86000215068017      -0.55415680926790933       -599.31642684021620        61411.448646042234     
   174.77886745810864      -0.55658723017438338       -596.54565022313875        62007.994296265373     
   177.87286468398281      -0.55929548832610732       -593.47352722352275        62601.467823488892     
   181.15250174340943      -0.56232401770668161       -589.98798904034459        63191.455812529239     
   184.62891702640167      -0.56572212086523410       -585.95838397746616        63777.414196506703     
   188.31391722637343      -0.56977934259401397       -580.17675449482579        64357.590951001526     
   192.22001743834349      -0.57879558627847472       -716.77577349759713        65074.366724499123     
   195.73550762911654      -0.58923999147867345       -666.49959809113989        65740.866322590256     
   198.89944880081228      -0.60031891265060078       -625.06018907564271        66365.926511665893     
   202.06338997250802      -0.61348081777642793       -587.65194903444990        66953.578460700344     
   205.22733114420376      -0.62890960054809963       -555.09699530970408        67508.675456010053     
   208.39127231589950      -0.64681530481172089       -527.79717613053219        68036.472632140591     
   210.41619466578479      -0.65967430227972401       -512.88714136870874        68549.359773509306     
   212.56261235666318      -0.67190677125540732       -505.01774762696874        69054.377521136281     
   214.70903004754157      -0.68447010732672020       -498.44790575272407        69552.825426889001     
   216.85544773841997      -0.69741665920779317       -493.16272671678786        70045.988153605795     
   219.00186542929836      -0.71066340619615354       -489.12335117040016        70535.111504776200     
   221.14828312017676      -0.72411624144027675       -486.26586366172205        71021.377368437927     
   223.29470081105515      -0.73725705993880042       -484.26475382133543        71505.642122259262     
   225.56990356338625      -0.74097914671355225       -486.36974628430255        71992.011868543559     
   227.84510631571735      -0.74476135283511291       -488.28013158242732        72480.292000125992     
   230.12030906804844      -0.74859877310068557       -490.02225728836152        72970.314257414357     
   232.39551182037954      -0.75250622844790538       -491.56710228641327        73461.881359700768     
   234.80722673785050      -0.75669680169690801       -493.06659285636414        73954.947952557137     
   237.36364455036971      -0.76118821228104183       -494.53111469559809        74449.479067252731     
   240.07344743164009      -0.76599847723693426       -495.97631995228551        74945.455387205016     
   242.94583848578668      -0.77114559578290842       -497.42431918484652        75442.879706389867     
   245.99057300318208      -0.77664710672713555       -498.90565161529702        75941.785358005160     
   249.21799159162120      -0.78251930829522764       -500.46958756987254        76442.254945575027     
   252.63905529536666      -0.78877697668135305       -502.16379904427129        76944.418744619295     
   256.26538282133686      -0.79543222469570030       -504.04924952950887        77448.467994148799     
   260.10928999886528      -0.80249331651189371       -506.20258686794489        77954.670581016748     
   264.18383160704542      -0.80996321400773130       -508.71897296847595        78463.389553985224     
   268.50284571171636      -0.81783784287331274       -511.71552959402362        78975.105083579241     
   273.08100066266752      -0.82610409863992373       -515.33566112228846        79490.440744701526     
   277.93384491067576      -0.83441108440289757       -520.90388662000316        80011.344631321525     
   282.78668915868400      -0.84249686164913051       -527.23436126009142        80538.578992581621     
   287.63953340669224      -0.85032096193696538       -534.42881228254453        81073.007804864159     
   292.49237765470048      -0.85784765126118045       -542.58930834253135        81615.597113206692     
   297.34522190270872      -0.86504712475601797       -551.81916235534811        82167.416275562035     
   302.19806615071695      -0.87189707965459295       -562.22274271416006        82729.639018276197     
   307.05091039872519      -0.87838193811010101       -573.90670208343568        83303.545720359631     
   311.90375464673343      -0.88449270708908223       -586.97938974381577        83890.525110103452     
   316.75659889474167      -0.89022655949918450       -601.54942593777821        84492.074536041226     
   321.60944314274991      -0.89558618373732846       -617.72329768183113        85109.797833723060     
   326.46228739075815      -0.90057897520271835       -635.60186179258096        85745.399695515647     
   331.31513163876639      -0.90521614559777386       -655.27566043575939        86400.675355951404     
   336.16797588677463      -0.90951181861461361       -676.81899351902280        87077.494349470420     
   341.02082013478287      -0.91348216746556610       -700.28275773844598        87777.777107208865     
   345.87366438279111      -0.91714463419453496       -725.68615972019052        88503.463266929059     
   350.72650863079934      -0.92051725555013475       -753.00754302823043        89256.470809957289     
   355.57935287880758      -0.92361810712132419       -782.17473321537625        90038.645543172664     
   360.43219712681582      -0.92646486719400423       -813.05549166890739        90851.701034841579     
   365.28504137482406      -0.92907449445355195       -845.44885892490174        91697.149893766487     
   370.13788562283230      -0.93146300889730704       -879.07833327787637        92576.228227044368     
   374.99072987084054      -0.93364536262274789       -913.58793517908407        93489.816162223447     
   379.84357411884878      -0.93563538599253659       -948.54221328423307        94438.358375507683     
   384.69641836685702      -0.93744579458358013       -983.43111965267951        95421.789495160367     
   389.54926261486526      -0.93908824293857662       -1017.6803991449146        96439.469894305279     
   394.40210686287350      -0.94057341218888246       -1050.6677052470286        97490.137599552312     
   399.25495111088173      -0.94191111992782828       -1081.7441066589324        98571.881706211250     
   404.10779535888997      -0.94300284616766517       -1110.8600942034393        99682.741800414689     
   408.96063960689821      -0.94538404480747273       -1129.6816262414873        100812.42342665618     
   413.81348385490645      -0.94912750843749849       -1140.5174379850400        101952.94086464122     
   418.66632810291469      -0.95419148336230686       -1145.5951724982756        103098.53603713949     
   423.51917235092293      -0.95950043597148471       -1149.9055135147607        104248.44155065426     
   428.66318725381166      -0.96761439581068776       -1146.9104480254339        105395.35199867969     
   433.80720215670038      -0.97726858819548068       -1140.4386340329934        106535.79063271268     
   438.95121705958911      -0.98798908841523370       -1135.2450267633710        107671.03565947605     
   444.09523196247784      -0.99995703069103059       -1128.0189332686368        108799.05459274469     
   449.23924686536657       -1.0133179412002749       -1119.0664976854484        109918.12109043014     
   454.38326176825530       -1.0280970368972422       -1108.7825886221187        111026.90367905227     
   459.52727667114402       -1.0443093701620585       -1097.6592795108402        112124.56295856311     
   464.67129157403275       -1.0619504519328602       -1086.2786975625606        113210.84165612567     
   467.96346111188154       -1.0738191187064401       -1078.9366021525466        114289.77825827822     
   471.25563064973034       -1.0746627966559394       -1098.1638220095415        115387.94208028777     
   474.54780018757913       -1.0756164652059836       -1115.6593190741219        116503.60139936190     
   477.83996972542792       -1.0766762100785616       -1131.4681846952622        117635.06958405716     
   481.13213926327671       -1.0778391859459460       -1145.6515576862359        118780.72114174339     
   484.42430880112551       -1.0791034310293572       -1158.2839560844345        119939.00509782782     
   487.71647833897430       -1.0804677059914838       -1169.4505773354997        121108.45567516332     
   491.00864787682309       -1.0819313520133267       -1179.2446547631287        122287.70032992645     
   494.30081741467188       -1.0834941642505231       -1187.7649423634568        123475.46527228990     
   497.59298695252068       -1.0851562778474204       -1195.1133840575030        124670.57865634741     
   500.88515649036947       -1.0869180644387548       -1201.3930082640436        125871.97166461145     
   504.17732602821826       -1.0887800376484573       -1206.7060745547706        127078.67773916622     
   507.46949556606705       -1.0907427665433882       -1211.1524865775691        128289.83022574379     
   510.76166510391585       -1.0927928150744011       -1215.0749098987696        129504.90513564256     
   514.25136481403558       -1.0950707561278703       -1218.4689375873165        130723.37407322988     
   517.95044650676255       -1.0976034095174700       -1221.3134823758908        131944.68755560578     
   521.87147310105308       -1.1004206838918851       -1223.6043996925396        133168.29195529831     
   526.02776129100107       -1.1035557513159309       -1225.3509818631815        134393.64293716149     
   530.43342677234591       -1.1070451315538956       -1226.5765713160454        135620.21950847754     
   535.10343218257140       -1.1109286339820443       -1227.3183835695531        136847.53789204711     
   540.05363791741047       -1.1152490890802451       -1227.6263749893189        138075.16426703642     
   545.30085599633992       -1.1200517836819246       -1227.5610223629965        139302.72528939942     
   550.86290716000508       -1.1253834961304905       -1227.1899118341680        140529.91520123358     
   556.75868139349018       -1.1312910122211626       -1226.5830366523489        141756.49823788594     
   563.00820208098435       -1.1377391599371467       -1226.7386795568500        142983.23691744279     
   569.63269400972820       -1.1447321016800789       -1226.6114383144859        144209.84835575728     
   576.65465545419670       -1.1522786903210662       -1226.2086392672611        145436.05699502453     
