 #              _____________________  _______________________             #
 #              ___  __ \__  __ \_  / / /_  /___  ____/_  ___/             #
 #              __  / / /_  /_/ /  / / /_  __/_  __/  _____ \              #
 #              _  /_/ /_  _, _// /_/ / / /_ _  /___  ____/ /              #
 #              /_____/ /_/ |_| \____/  \__/ /_____/  /____/               #
 #                                                                         #
  
 #        time                      T            heat flux [W.L-2]   in    x              directions   cumulative flux
 #-----------------------------------------------------------------------------------------------

   0.0000000000000000        4.8296000000000001       -1.9843533829023114        1.9843533829023114     
   1.0000000000000000        4.8303580460419866       -2.2181187009176506        4.2024720838199618     
   1.8999999999999999        4.8310049112787556       -2.4119637593965062        6.6144358432164676     
   2.7100000000000000        4.8315604625918960       -2.5740832167734196        9.1885190599898863     
   3.5200000000000000        4.8320912541670280       -2.7248332100144714        11.913352270004358     
   4.3300000000000001        4.8325990071910043       -2.8651052600997526        14.778457530104111     
   5.1400000000000006        4.8330853084359466       -2.9957175334372845        17.774175063541396     
   5.9500000000000011        4.8335516212943173       -3.1174210743028810        20.891596137844278     
   6.7600000000000016        4.8339992958779607       -3.2309054950984701        24.122501632942747     
   7.5700000000000021        4.8344295782624824       -3.3368041724580944        27.459305805400842     
   8.3800000000000026        4.8348436189510959       -3.4356989929062216        30.895004798307063     
   9.1900000000000031        4.8352424806255403       -3.5281246878876948        34.423129486194760     
   10.000000000000004        4.8356271452456774       -3.6145727944141250        38.037702280608883     
   10.810000000000004        4.8359985213950889       -3.6954956312700191        41.733197911878904     
   11.668600000000005        4.8363782435316969       -3.7755579321661714        45.508755844045076     
   12.578716000000005        4.8367661767335894       -3.8545362555497804        49.363292099594858     
   13.543438960000005        4.8371621932859572       -3.9322148238817647        53.295506923476623     
   14.508161920000004        4.8375440981323692       -4.0043793267025176        57.299886250179142     
   15.530768257600005        4.8379342291556151       -4.0752405006820656        61.375126750861206     
   16.614730975456006        4.8383325243315003       -4.1446256167322257        65.519752367593426     
   17.763731456383365        4.8387389402387502       -4.2123776799412935        69.732130047534724     
   18.912731937310724        4.8391307992221932       -4.2749057868327673        74.007035834367485     
   20.130672447093726        4.8395311149742453       -4.3359203633610663        78.342956197728554     
   21.421689387463708        4.8399399188430028       -4.3953160168376941        82.738272214566251     
   22.790167344255888        4.8403572649140187       -4.4530081153683554        87.191280329934614     
   24.158645301048068        4.8407599293516670       -4.5060182415753536        91.697298571509961     
   25.609231935247781        4.8411716304433812       -4.5575568119285697        96.254855383438525     
   27.146853767499476        4.8415924813518485       -4.6075903178094331        100.86244570124796     
   28.684475599751170        4.8419990518302036       -4.6535751832121992        105.51602088446016     
   30.314354741937969        4.8424152988497040       -4.6983354386836913        110.21435632314385     
   32.042026632655976        4.8428413647142152       -4.7418854181812371        114.95624174132509     
   33.769698523373982        4.8432534838049754       -4.7820414848663404        119.73828322619143     
   35.601030727535068        4.8436759110330145       -4.8213080965324053        124.55959132272383     
   37.432362931696154        4.8440850119237240       -4.8577219007421801        129.41731322346601     
   39.373575068106902        4.8445048120527181       -4.8935742015929895        134.31088742505901     
   41.314787204517650        4.8449117446744756       -4.9270806152905591        139.23796804034956     
   43.372472069113044        4.8453296395314123       -4.9603778667971037        144.19834590714666     
   45.430156933708439        4.8457349476783955       -4.9918234181775167        149.19016932532418     
   47.611302890179559        4.8461513127385034       -5.0234641588062008        154.21363348413038     
   49.792448846650679        4.8465551677884831       -5.0537641380797478        159.26739762221013     
   52.104463560510062        4.8469699485720650       -5.0847556455993459        164.35215326780948     
   54.416478274369446        4.8473720500490431       -5.1149723035756693        169.46712557138517     
   56.867213871060393        4.8477846360584982       -5.1465229339371827        174.61364850532235     
   59.317949467751340        4.8481840621696417       -5.1779667631017139        179.79161526842407     
   61.915729200243746        4.8485930991339767       -5.2116025726726578        185.00321784109673     
   64.513508932736158        4.8489880866648969       -5.2459571189784411        190.24917496007518     
   67.111288665228571        4.8493692136267272       -5.2814353935682981        195.53061035364348     
   69.864935181670518        4.8497577238790370       -5.3207795938965985        200.85138994754007     
   72.618581698112465        4.8501307154837443       -5.3623309200905389        206.21372086763060     
   75.537447005540926        4.8505084627264141       -5.4094086655862892        211.62312953321688     
   78.456312312969388        4.8508682644112753       -5.4600683006653039        217.08319783388220     
   81.375177620397849        4.8512096731154344       -5.5148519999381138        222.59804983382031     
   84.294042927826311        4.8515321246956029       -5.5742943624015409        228.17234419622184     
   87.212908235254773        4.8518349467498663       -5.6389206093911426        233.81126480561298     
   90.131773542683234        4.8521173668425961       -5.7092445084651979        239.52050931407817     
   93.050638850111696        4.8523785206003014       -5.7857661441134152        245.30627545819158     
   95.969504157540158        4.8526174597458045       -5.8689696331755581        251.17524509136715     
   98.888369464968619        4.8528331601070303       -5.9593208641247868        257.13456595549195     
   101.80723477239708        4.8530245296128109       -6.0572653238040814        263.19183127929603     
   104.72610007982554        4.8531904162702206       -6.1632260620983832        269.35505734139440     
   107.64496538725400        4.8533296161047508       -6.2776018337686743        275.63265917516310     
   110.56383069468247        4.8534408810353886       -6.4007654469194541        282.03342462208258     
   113.48269600211093        4.8535229266505810       -6.5330623390038562        288.56648696108641     
   116.40156130953939        4.8535744398475442       -6.6748093937503690        295.24129635483678     
   119.32042661696785        4.8535940862961207       -6.8262940058315973        302.06759036066836     
   122.23929192439631        4.8535805176886520       -6.9877733943434217        309.05536375501180     
   125.15815723182477        4.8535323787391329       -7.1594741612627280        316.21483791627452     
   128.07702253925325        4.8534483138976681       -7.3415920869076192        323.55643000318213     
   130.99588784668171        4.8533269737497928       -7.5342921510017673        331.09072215418388     
   133.91475315411017        4.8531670210742943       -7.7377087652104652        338.82843091939435     
   136.83361846153863        4.8529671365376474       -7.9519462009557911        346.78037712035012     
   139.75248376896710        4.8527260240076888       -8.1770791947918777        354.95745631514200     
   142.67134907639556        4.8524424154738099       -8.4131537126910665        363.37061002783304     
   145.59021438382402        4.8521150755654174       -8.6601878540859563        372.03079788191900     
   148.50907969125248        4.8517428056646956       -8.9181728764543067        380.94897075837332     
   151.42794499868094        4.8513244476137336       -9.1870743215148618        390.13604507988816     
   154.34681030610940        4.8508588870197675       -9.4668332246800002        399.60287830456815     
   157.26567561353787        4.8503450561655814       -9.7573673902282057        409.36024569479633     
   160.18454092096633        4.8497819365350860       -10.058572715675984        419.41881841047234     
   163.10340622839479        4.8491685609665645       -10.370324549952626        429.78914296042495     
   166.02227153582325        4.8485040154482837       -10.692479071248021        440.48162203167300     
   168.94113684325171        4.8477874405728389       -11.024874671672420        451.50649670334542     
   171.86000215068017        4.8470180326680534       -11.367333337222687        462.87383004056812     
   174.77886745810864        4.8461950356950734       -11.719665696189804        474.59349573675792     
   177.87286468398281        4.8452616363481171       -12.103982249714925        486.69747798647285     
   181.15250174340943        4.8442027850039837       -12.523229198687545        499.22070718516039     
   184.62891702640167        4.8430014341302376       -12.980575302987097        512.20128248814751     
   188.31391722637343        4.8416383020183265       -13.479413618714815        525.68069610686234     
   192.22001743834349        4.8400916416779642       -14.023348051468355        539.70404415833070     
   195.73550762911654        4.8386166276978715       -14.524719628307473        554.22876378663818     
   198.89944880081228        4.8372215102478728       -14.985194223191719        569.21395800982987     
   202.06338997250802        4.8357585022558611       -15.454560506686661        584.66851851651654     
   205.22733114420376        4.8342273896319652       -15.932465324203626        600.60098384072012     
   208.39127231589950        4.8326280279929072       -16.418552039201291        617.01953587992136     
   210.41619466578479        4.8315764576425941       -16.732903727057540        633.75243960697890     
   212.56261235666318        4.8304303341635393       -17.069665033524689        650.82210464050354     
   214.70903004754157        4.8292527507002880       -17.409861252066655        668.23196589257020     
   216.85544773841997        4.8280437175885620       -17.753379626637564        685.98534551920773     
   219.00186542929836        4.8268032584468763       -18.100107396479174        704.08545291568691     
   221.14828312017676        4.8255314098532907       -18.449931923020053        722.53538483870693     
   223.29470081105515        4.8242282088325332       -18.802746678751205        741.33813151745812     
   225.56990356338625        4.8228116879092324       -19.179944594193660        760.51807611165179     
   227.84510631571735        4.8213601162409416       -19.560229559998962        780.07830567165081     
   230.12030906804844        4.8198735975873346       -19.943469463231551        800.02177513488232     
   232.39551182037954        4.8183522337699323       -20.329540818468789        820.35131595335110     
   234.80722673785050        4.8167006086703106       -20.741795723714691        841.09311167706585     
   237.36364455036971        4.8149062970959440       -21.181995405548523        862.27510708261434     
   240.07344743164009        4.8129556238374089       -21.651997572846639        883.92710465546099     
   242.94583848578668        4.8108335440719179       -22.153755627147724        906.08086028260868     
   245.99057300318208        4.8085235154344792       -22.689316224795615        928.77017650740424     
   249.21799159162120        4.8060073620683319       -23.260814824567138        952.03099133197134     
   252.63905529536666        4.8032651312570316       -23.870468817836603        975.90146014980792     
   256.26538282133686        4.8002749435957481       -24.520567812933891        1000.4220279627418     
   260.10928999886528        4.7970128380804518       -25.213460637733640        1025.6354886004754     
   264.18383160704542        4.7934526139773483       -25.951538641526312        1051.5870272420016     
   268.50284571171636        4.7895656718717854       -26.737214925394547        1078.3242421673961     
   273.08100066266752        4.7853208568689505       -27.572899214788528        1105.8971413821846     
   277.93384491067576        4.7806844588717130       -28.460904728648163        1134.3580461108327     
   282.78668915868400        4.7759141802760583       -29.350208532627263        1163.7082546434599     
   287.63953340669224        4.7710132471442703       -30.239921312792926        1193.9481759562527     
   292.49237765470048        4.7659849643114676       -31.129199394104685        1225.0773753503574     
   297.34522190270872        4.7608327006743361       -32.017245310140780        1257.0946206604983     
   302.19806615071695        4.7555598751508494       -32.903308010504801        1289.9979286710031     
   307.05091039872519        4.7501699433816524       -33.786682716654788        1323.7846113876578     
   311.90375464673343        4.7446663852327999       -34.666710446138943        1358.4513218337968     
   316.75659889474167        4.7390526931464869       -35.542777232813094        1393.9940990666098     
   321.60944314274991        4.7333323613722458       -36.414313076197580        1430.4084121428075     
   326.46228739075815        4.7275088760966266       -37.280790656803724        1467.6892027996112     
   331.31513163876639        4.7215857064753868       -38.141723856134007        1505.8309266557451     
   336.16797588677463        4.7155662965591434       -38.996666120397705        1544.8275927761429     
   341.02082013478287        4.7094540580917341       -39.845208706050585        1584.6728014821933     
   345.87366438279111        4.7032523641503881       -40.686978843367065        1625.3597803255605     
   350.72650863079934        4.6969645435883214       -41.521637851552121        1666.8814181771127     
   355.57935287880758        4.6905938762336969       -42.348879235744960        1709.2302974128577     
   360.43219712681582        4.6841435887937912       -43.168426792714463        1752.3987242055721     
   365.28504137482406        4.6776168514098577       -43.980032748359122        1796.3787569539313     
   370.13788562283230        4.6710167748061613       -44.783475946366742        1841.1622329002980     
   374.99072987084054        4.6643464079761143       -45.578560103716121        1886.7407930040142     
   379.84357411884878        4.6576087363490037       -46.365112145165973        1933.1059051491802     
   384.69641836685702        4.6508066803823844       -47.142980625572250        1980.2488857747526     
   389.54926261486526        4.6439430945276481       -47.912034245813615        2028.1609200205662     
   394.40210686287350        4.6370207665193730       -48.672160465390469        2076.8330804859565     
   399.25495111088173        4.6300424169426657       -49.423264212316091        2126.2563446982726     
   404.10779535888997        4.6230106990366142       -50.165266689041999        2176.4216113873144     
   408.96063960689821        4.6159281986972704       -50.898104268619548        2227.3197156559340     
   413.81348385490645        4.6087974346400724       -51.621727494251587        2278.9414431501855     
   418.66632810291469        4.6016208586755498       -52.336100202041855        2331.2775433522274     
   423.51917235092293        4.5944005444251061       -53.041261763170446        2384.3188051153979     
   428.66318725381166        4.5867012902799820       -53.778240782946213        2438.0970458983443     
   433.80720215670038        4.5789586698857176       -54.504789890528507        2492.6018357888729     
   438.95121705958911        4.5711752739264275       -55.220924613086055        2547.8227604019589     
   444.09523196247784        4.5633536104460086       -55.926674372955958        2603.7494347749148     
   449.23924686536657        4.5554961047982294       -56.622082431672744        2660.3715172065877     
   454.38326176825530        4.5476050994120776       -57.307205894308922        2717.6787231008966     
   459.52727667114402        4.5396828533918878       -57.982115737437475        2775.6608388383343     
   464.67129157403275        4.5317315419791377       -58.646896834395754        2834.3077356727299     
   467.96346111188154        4.5266313537930074       -59.068227628924795        2893.3759633016548     
   471.25563064973034        4.5215203593654030       -59.485461079016019        2952.8614243806710     
   474.54780018757913        4.5163990860591721       -59.898626487580152        3012.7600508682513     
   477.83996972542792        4.5112680471342639       -60.307755328921814        3073.0678061971730     
   481.13213926327671        4.5061277414648613       -60.712881258362835        3133.7806874555358     
   484.42430880112551        4.5009786535210274       -61.114039995984811        3194.8947274515208     
   487.71647833897430        4.4958212533875992       -61.511269172491417        3256.4059966240120     
   491.00864787682309        4.4906559968284876       -61.904608140049206        3318.3106047640613     
   494.30081741467188        4.4854833254023641       -62.294097753700285        3380.6047025177618     
   497.59298695252068        4.4803036666331879       -62.679780130802705        3443.2844826485643     
   500.88515649036947        4.4751174342363642       -63.061698396883322        3506.3461810454478     
   504.17732602821826        4.4699250283989098       -63.439896426472487        3569.7860774719202     
   507.46949556606705        4.4647268361097900       -63.814418586992872        3633.6004960589130     
   510.76166510391585        4.4595230423077794       -64.185357410639995        3697.7858534695529     
   514.25136481403558        4.4540013452645253       -64.574533385606969        3762.3603868551600     
   517.95044650676255        4.4481424604982944       -64.982607007169946        3827.3429938623299     
   521.87147310105308        4.4419259916226954       -65.410235840159615        3892.7532297024895     
   526.02776129100107        4.4353303784322486       -65.858070502605386        3958.6113002050947     
   530.43342677234591        4.4283328448360377       -66.326750025544854        4024.9380502306394     
   535.10343218257140        4.4209093471553187       -66.816896521911374        4091.7549467525509     
   540.05363791741047        4.4130345234074690       -67.329109112248489        4159.0840558647997     
   545.30085599633992        4.4046816443049881       -67.863957083237736        4226.9480129480371     
   550.86290716000508        4.3958225667927602       -68.421972299580631        4295.3699852476175     
   556.75868139349018        4.3864276910132514       -69.003640952647899        4364.3736262002658     
   563.00820208098435        4.3764659216346447       -69.609394761458702        4433.9830209617248     
   569.63269400972820        4.3659046345651742       -70.239601650588327        4504.2226226123130     
   576.65465545419670        4.3547096501851872       -70.894555905642562        4575.1171785179558     
