 #              _____________________  _______________________             #
 #              ___  __ \__  __ \_  / / /_  /___  ____/_  ___/             #
 #              __  / / /_  /_/ /  / / /_  __/_  __/  _____ \              #
 #              _  /_/ /_  _, _// /_/ / / /_ _  /___  ____/ /              #
 #              /_____/ /_/ |_| \____/  \__/ /_____/  /____/               #
 #                                                                         #
  
 #        time                      T            heat flux [W.L-2]   in    x              directions   cumulative flux
 #-----------------------------------------------------------------------------------------------

   0.0000000000000000        4.9545000000000003        6.9455336284279667        6.9455336284279667     
   1.0000000000000000        4.9541207017617097        7.0625121830940163        14.008045811521983     
   1.8999999999999999        4.9537970368744375        7.1595123606953397        21.167558172217323     
   2.7100000000000000        4.9535190636211146        7.2406352364079449        28.408193408625266     
   3.5200000000000000        4.9532534806092317        7.3160666973142350        35.724260105939500     
   4.3300000000000001        4.9529994261166959        7.3862522929643317        43.110512398903829     
   5.1400000000000006        4.9527561055384988        7.4516006708935674        50.562113069797398     
   5.9500000000000011        4.9525227858363516        7.5124867067281844        58.074599776525581     
   6.7600000000000016        4.9522987904586788        7.5692543666670167        65.643854143192598     
   7.5700000000000021        4.9520834946907790        7.6222193252588513        73.266073468451452     
   8.3800000000000026        4.9518763213984265        7.6716713594137023        80.937744827865160     
   9.1900000000000031        4.9516767371313293        7.7178765378098504        88.655621365675017     
   10.000000000000004        4.9514842485557002        7.7610792232205936        96.416700588895608     
   10.810000000000004        4.9512983986277259        7.8015040648583067        104.21820465375392     
   11.668600000000005        4.9511083564395957        7.8414775114278248        112.05968216518174     
   12.578716000000005        4.9509141825600107        7.8808819507606485        119.94056411594239     
   13.543438960000005        4.9507159315457034        7.9196022300107662        127.86016634595316     
   14.508161920000004        4.9505247064920272        7.9555334491139362        135.81569979506710     
   15.530768257600005        4.9503293100667554        7.9907647350029505        143.80646453007006     
   16.614730975456006        4.9501297535921243        8.0251982079387592        151.83166273800882     
   17.763731456383365        4.9499260328921064        8.0587416116999790        159.89040434970880     
   18.912731937310724        4.9497294959017486        8.0896108758912284        167.98001522560003     
   20.130672447093726        4.9495285685874224        8.1196253767982007        176.09964060239824     
   21.421689387463708        4.9493231858778577        8.1487124347913849        184.24835303718962     
   22.790167344255888        4.9491132574789605        8.1768065233707290        192.42515956056036     
   24.158645301048068        4.9489104224289555        8.2024503146976233        200.62760987525797     
   25.609231935247781        4.9487026620781629        8.2271790579949791        208.85478893325296     
   27.146853767499476        4.9484898086863698        8.2509445960990284        217.10573352935199     
   28.684475599751170        4.9482836432022035        8.2725332632921003        225.37826679264410     
   30.314354741937969        4.9480718996679594        8.2932497687557198        233.67151656139981     
   32.042026632655976        4.9478543217515165        8.3130595833439624        241.98457614474378     
   33.769698523373982        4.9476429385084488        8.3309665593993110        250.31554270414310     
   35.601030727535068        4.9474251223681467        8.3480625519193072        258.66360525606240     
   37.432362931696154        4.9472129261293123        8.3634910413927503        267.02709629745516     
   39.373575068106902        4.9469936500344831        8.3781943679363255        275.40529066539148     
   41.314787204517650        4.9467794382837367        8.3914387896167462        283.79672945500823     
   43.372472069113044        4.9465574462750075        8.4040348106820009        292.20076426569022     
   45.430156933708439        4.9463399792253142        8.4153568674387138        300.61612113312896     
   47.611302890179559        4.9461139727823120        8.4260996884679198        309.04222082159686     
   49.792448846650679        4.9458919654819775        8.4357331312474049        317.47795395284425     
   52.104463560510062        4.9456605958763706        8.4448507320250439        325.92280468486928     
   54.416478274369446        4.9454327114484782        8.4530064309295838        334.37581111579885     
   56.867213871060393        4.9451945737057441        8.4607058488444498        342.83651696464329     
   59.317949467751340        4.9449594185111900        8.4675766913726047        351.30409365601588     
   61.915729200243746        4.9447130476625034        8.4740488176624371        359.77814247367832     
   64.513508932736158        4.9444691687528977        8.4798140162318081        368.25795648991010     
   67.111288665228571        4.9442274282565055        8.4849627471052660        376.74291923701537     
   69.864935181670518        4.9439732172235660        8.4898208931665948        385.23274013018198     
   72.618581698112465        4.9437207180026954        8.4941606769276738        393.72690080710964     
   75.537447005540926        4.9434546580589123        8.4982618286475002        402.22516263575716     
   78.456312312969388        4.9431898976022497        8.5019364983014860        410.72709913405862     
   81.375177620397849        4.9429261848104975        8.5052477481390731        419.23234688219770     
   84.294042927826311        4.9426633011900671        8.5082505595068412        427.74059744170455     
   87.212908235254773        4.9424010574148012        8.5109929520631926        436.25159039376774     
   90.131773542683234        4.9421392897218128        8.5135169238635715        444.76510731763130     
   93.050638850111696        4.9418778567794330        8.5158592457628455        453.28096656339414     
   95.969504157540158        4.9416166369575620        8.5180521364563813        461.79901869985054     
   98.888369464968619        4.9413555259427824        8.5201238390238867        470.31914253887442     
   101.80723477239708        4.9410944346502115        8.5220991156240498        478.84124165449845     
   104.72610007982554        4.9408332873917704        8.5239996737390733        487.36524132823752     
   107.64496538725400        4.9405720202668446        8.5258445348217844        495.89108586305929     
   110.56383069468247        4.9403105797464022        8.5276503541918984        504.41873621725119     
   113.48269600211093        4.9400489214258521        8.5294316994865760        512.94816791673782     
   116.40156130953939        4.9397870089254470        8.5312012936728348        521.47936921041060     
   119.32042661696785        4.9395248129199230        8.5329702276661514        530.01233943807676     
   122.23929192439631        4.9392623102815634        8.5347481467635529        538.54708758484037     
   125.15815723182477        4.9389994833229380        8.5365434144469088        547.08363099928727     
   128.07702253925325        4.9387363191273712        8.5383632565671999        555.62199425585447     
   130.99588784668171        4.9384728089566776        8.5402138884853169        564.16220814433984     
   133.91475315411017        4.9382089477270599        8.5421006273567830        572.70430877169667     
   136.83361846153863        4.9379447335451507        8.5440279914496564        581.24833676314631     
   139.75248376896710        4.9376801672971906        8.5459997881163652        589.79433655126263     
   142.67134907639556        4.9374152522851738        8.5480191918263149        598.34235574308900     
   145.59021438382402        4.9371499939045389        8.5500888134684949        606.89244455655751     
   148.50907969125248        4.9368843993586218        8.5522107619855081        615.44465531854303     
   151.42794499868094        4.9366184774056743        8.5543866992491040        623.99904201779214     
   154.34681030610940        4.9363522381347273        8.5566178889790709        632.55565990677121     
   157.26567561353787        4.9360856927670262        8.5589052404060162        641.11456514717725     
   160.18454092096633        4.9358188534801446        8.5612493472844360        649.67581449446163     
   163.10340622839479        4.9355517332522219        8.5636505227902067        658.23946501725186     
   166.02227153582325        4.9352843457240674        8.5661088307688278        666.80557384802069     
   168.94113684325171        4.9350167050771194        8.5686241137527546        675.37419796177346     
   171.86000215068017        4.9347488259255163        8.5711960180898448        683.94539397986330     
   174.77886745810864        4.9344807231015650        8.5738239994903065        692.51921797935358     
   177.87286468398281        4.9341963010302727        8.5766718642813640        701.09588984363495     
   181.15250174340943        4.9338945735987672        8.5797593064890130        709.67564915012395     
   184.62891702640167        4.9335744990266477        8.5831075507302614        718.25875670085418     
   188.31391722637343        4.9332349776684534        8.5867393852347735        726.84549608608893     
   192.22001743834349        4.9328748501559385        8.5906792127687126        735.43617529885762     
   195.73550762911654        4.9325505718616505        8.5942957628768930        744.03047106173449     
   198.89944880081228        4.9322586083825479        8.5976062236707591        752.62807728540520     
   202.06338997250802        4.9319665511315609        8.6009704805511529        761.22904776595635     
   205.22733114420376        4.9316744191093678        8.6043867110065921        769.83343447696291     
   208.39127231589950        4.9313822310438526        8.6078530502683037        778.44128752723122     
   210.41619466578479        4.9311952126053464        8.6100915396086659        787.05137906683990     
   212.56261235666318        4.9309969584337408        8.6124862447324535        795.66386531157241     
   214.70903004754157        4.9307986953105534        8.6149022585094475        804.27876757008187     
   216.85544773841997        4.9306004288204157        8.6173389759717249        812.89610654605360     
   219.00186542929836        4.9304021644744678        8.6197957891335175        821.51590233518709     
   221.14828312017676        4.9302039077082513        8.6222720879427932        830.13817442312984     
   223.29470081105515        4.9300056637982657        8.6247672463944696        838.76294166952425     
   225.56990356338625        4.9297955461611256        8.6274326087166191        847.39037427824087     
   227.84510631571735        4.9295854555231609        8.6301177221084107        856.02049200034924     
   230.12030906804844        4.9293753979617154        8.6328218602808953        864.65331386063008     
   232.39551182037954        4.9291653793598362        8.6355442818738162        873.28885814250384     
   234.80722673785050        4.9289428104982225        8.6384497518176566        881.92730789432153     
   237.36364455036971        4.9287069527950962        8.6415506724651046        890.56885856678662     
   240.07344743164009        4.9284570264809773        8.6448601812328150        899.21371874801946     
   242.94583848578668        4.9281922087142354        8.6483921626622795        907.86211091068174     
   245.99057300318208        4.9279116316804412        8.6521612528043299        916.51427216348611     
   249.21799159162120        4.9276143806880013        8.6561828340101847        925.17045499749634     
   252.63905529536666        4.9272994922746509        8.6604730179321354        933.83092801542853     
   256.26538282133686        4.9269659523415790        8.6650486142477003        942.49597662967619     
   260.10928999886528        4.9266126943343105        8.6699270823271490        951.16590371200334     
   264.18383160704542        4.9262385974918192        8.6751264627831581        959.84103017478651     
   268.50284571171636        4.9258424851877800        8.6806652855630784        968.52169546034963     
   273.08100066266752        4.9254231233902770        8.6865624509934012        977.20825791134303     
   277.93384491067576        4.9249792195539461        8.6928371761078669        985.90109508745093     
   282.78668915868400        4.9245359713869705        8.6991301490989219        994.60022523654982     
   287.63953340669224        4.9240934133920291        8.7054361752619052        1003.3056614118117     
   292.49237765470048        4.9236515783115422        8.7117502606358244        1012.0174116724475     
   297.34522190270872        4.9232104971877302        8.7180676112534492        1020.7354792837009     
   302.19806615071695        4.9227701994227502        8.7243836315720245        1029.4598629152729     
   307.05091039872519        4.9223307128385336        8.7306939222109374        1038.1905568374839     
   311.90375464673343        4.9218920637360561        8.7369942771044897        1046.9275511145884     
   316.75659889474167        4.9214542769537681        8.7432806801630782        1055.6708317947514     
   321.60944314274991        4.9210173759250129        8.7495493015257608        1064.4203810962772     
   326.46228739075815        4.9205813827342597        8.7557964934746622        1073.1761775897519     
   331.31513163876639        4.9201463181720300        8.7620187860825709        1081.9381963758344     
   336.16797588677463        4.9197122017884150        8.7682128826441410        1090.7064092584785     
   341.02082013478287        4.9192790519451286        8.7743756549366605        1099.4807849134152     
   345.87366438279111        4.9188468858660208        8.7805041383607243        1108.2612890517760     
   350.72650863079934        4.9184157196860276        8.7865955269975160        1117.0478845787734     
   355.57935287880758        4.9179855684985352        8.7926471686081378        1125.8405317473814     
   360.43219712681582        4.9175564464011456        8.7986565596119828        1134.6391883069934     
   365.28504137482406        4.9171283665398544        8.8046213400616864        1143.4438096470551     
   370.13788562283230        4.9167013411516383        8.8105392886437492        1152.2543489356988     
   374.99072987084054        4.9162753816054714        8.8164083177149912        1161.0707572534138     
   379.84357411884878        4.9158504984418050        8.8222264683980143        1169.8929837218118     
   384.69641836685702        4.9154267014105280        8.8279919057407579        1178.7209756275524     
   389.54926261486526        4.9150039995074364        8.8337029139593586        1187.5546785415117     
   394.40210686287350        4.9145824010092580        8.8393578917710904        1196.3940364332827     
   399.25495111088173        4.9141619135072565        8.8449553478216192        1205.2389917811045     
   404.10779535888997        4.9137425439394695        8.8504938962156352        1214.0894856773200     
   408.96063960689821        4.9133242986216041        8.8559722521607167        1222.9454579294807     
   413.81348385490645        4.9129071832766389        8.8613892277185222        1231.8068471571992     
   418.66632810291469        4.9124912030631780        8.8667437276731906        1240.6735908848723     
   423.51917235092293        4.9120763629314057        8.8720346246475863        1249.5456255095198     
   428.66318725381166        4.9116379175694220        8.8775706814632382        1258.4231961909832     
   433.80720215670038        4.9112007619432179        8.8830333277563316        1267.3062295187394     
   438.95121705958911        4.9107648997238798        8.8884216702108549        1276.1946511889503     
   444.09523196247784        4.9103303340336195        8.8937349077170555        1285.0883860966674     
   449.23924686536657        4.9098970674744402        8.8989723268430883        1293.9873584235104     
   454.38326176825530        4.9094651021554556        8.9041332974787260        1302.8914917209891     
   459.52727667114402        4.9090344397189094        8.9092172686411182        1311.8007089896303     
   464.67129157403275        4.9086050813649580        8.9142237644370557        1320.7149327540674     
   467.96346111188154        4.9083308264136818        8.9173960746081633        1329.6323288286756     
   471.25563064973034        4.9080571060315110        8.9205364375198943        1338.5528652661953     
   474.54780018757913        4.9077839203257296        8.9236447637172400        1347.4765100299126     
   477.83996972542792        4.9075112693392642        8.9267209747232101        1356.4032310046357     
   481.13213926327671        4.9072391530529833        8.9297650026522373        1365.3329960072879     
   484.42430880112551        4.9069675713878951        8.9327767898416539        1374.2657727971296     
   487.71647833897430        4.9066965242072742        8.9357562884916479        1383.2015290856211     
   491.00864787682309        4.9064260113187235        8.9387034603150806        1392.1402325459362     
   494.30081741467188        4.9061560324761784        8.9416182761952463        1401.0818508221314     
   497.59298695252068        4.9058865873818265        8.9445007158571546        1410.0263515379886     
   500.88515649036947        4.9056176756879903        8.9473507675413764        1418.9737023055300     
   504.17732602821826        4.9053492969989305        8.9501684276951110        1427.9238707332252     
   507.46949556606705        4.9050814508726068        8.9529537006660718        1436.8768244338912     
   510.76166510391585        4.9048141371130569        8.9557065426253555        1445.8325309765166     
   514.25136481403558        4.9045313817683942        8.9585881981020901        1454.7911191746186     
   517.95044650676255        4.9042323313429650        8.9616019413086203        1463.7527211159272     
   521.87147310105308        4.9039160899184786        8.9647507132227702        1472.7174718291499     
   526.02776129100107        4.9035817176336369        8.9680370428157605        1481.6855088719656     
   530.43342677234591        4.9032282291846672        8.9714629580371685        1490.6569718300027     
   535.10343218257140        4.9028545923586595        8.9750298856540773        1499.6320017156568     
   540.05363791741047        4.9024597266130368        8.9787385390314931        1508.6107402546882     
   545.30085599633992        4.9020425017158988        8.9825887929382535        1517.5933290476264     
   550.86290716000508        4.9016017364635633        8.9865795444779604        1526.5799085921044     
   556.75868139349018        4.9011361974930798        8.9907085592944149        1535.5706171513989     
   563.00820208098435        4.9006445982090838        8.9949723022640971        1544.5655894536631     
   569.63269400972820        4.9001255978458662        8.9993657519860388        1553.5649552056491     
   576.65465545419670        4.8995778006869859        9.0038821985181947        1562.5688374041672     
