 #              _____________________  _______________________             #
 #              ___  __ \__  __ \_  / / /_  /___  ____/_  ___/             #
 #              __  / / /_  /_/ /  / / /_  __/_  __/  _____ \              #
 #              _  /_/ /_  _, _// /_/ / / /_ _  /___  ____/ /              #
 #              /_____/ /_/ |_| \____/  \__/ /_____/  /____/               #
 #                                                                         #
  
 #        time                      T            heat flux [W.L-2]   in    x              directions   cumulative flux
 #-----------------------------------------------------------------------------------------------

   0.0000000000000000        5.0949000000000000        4.9673742996023096        4.9673742996023096     
   1.0000000000000000        5.0951846345555021        4.8796012862333198        9.8469755858356294     
   1.8999999999999999        5.0954275230758563        4.8068177319998977        14.653793317835527     
   2.7100000000000000        5.0956361249251643        4.7459462789384226        19.399739596773948     
   3.5200000000000000        5.0958354300428663        4.6893433142562984        24.089082911030246     
   4.3300000000000001        5.0960260844677565        4.6366736123799761        28.725756523410222     
   5.1400000000000006        5.0962086837027210        4.5876294100941104        33.313385933504335     
   5.9500000000000011        5.0963837768432612        4.5419280672057880        37.855314000710123     
   6.7600000000000016        5.0965518703556869        4.4993099337356277        42.354623934445755     
   7.5700000000000021        5.0967134315357807        4.4595364048723454        46.814160339318100     
   8.3800000000000026        5.0968688916759159        4.4223881466590873        51.236548485977188     
   9.1900000000000031        5.0970186489661415        4.3876634769587861        55.624211962935973     
   10.000000000000004        5.0971630711523561        4.3551768876912105        59.979388850627181     
   10.810000000000004        5.0973024981563464        4.3247576544033386        64.304146505030516     
   11.668600000000005        5.0974450502180888        4.2946499936928744        68.598796498723388     
   12.578716000000005        5.0975906731932668        4.2649344910278435        72.863730989751232     
   13.543438960000005        5.0977393145170735        4.2356879422479867        77.099418931999224     
   14.508161920000004        5.0978826394210532        4.2084948819178445        81.307913813917068     
   15.530768257600005        5.0980290249898532        4.1817642479245887        85.489678061841659     
   16.614730975456006        5.0981784381871584        4.1555543804081907        89.645232442249849     
   17.763731456383365        5.0983308499817603        4.1299163173284361        93.775148759578286     
   18.912731937310724        5.0984777463415529        4.1062056420565494        97.881354401634837     
   20.130672447093726        5.0986277390576493        4.0830082969395756        101.96436269857442     
   21.421689387463708        5.0987808157657586        4.0603528194504666        106.02471551802489     
   22.790167344255888        5.0989369660327890        4.0382582455729406        110.06297376359782     
   24.158645301048068        5.0990874800913684        4.0178623024792621        114.08083606607708     
   25.609231935247781        5.0992411897048013        3.9979208952665330        118.07875696134361     
   27.146853767499476        5.0993980842512538        3.9784311610520260        122.05718812239564     
   28.684475599751170        5.0995493965198904        3.9603838519750831        126.01757197437072     
   30.314354741937969        5.0997039877641086        3.9426634576180670        129.96023543198879     
   32.042026632655976        5.0998618258438349        3.9252493459851610        133.88548477797394     
   33.769698523373982        5.1000140597432218        3.9090217481530765        137.79450652612701     
   35.601030727535068        5.1001695674281287        3.8929687078469435        141.68747523397394     
   37.432362931696154        5.1003195940204389        3.8779074178474766        145.56538265182141     
   39.373575068106902        5.1004728531156047        3.8628998404145074        149.42828249223592     
   41.314787204517650        5.1006206813182686        3.8487180481728949        153.27700054040881     
   43.372472069113044        5.1007716247092771        3.8344822585769660        157.11148279898578     
   45.430156933708439        5.1009171162613818        3.8209346138797078        160.93241741286548     
   47.611302890179559        5.1010655238575833        3.8072400157187611        164.73965742858422     
   49.792448846650679        5.1012083914435866        3.7941231088897074        168.53378053747394     
   52.104463560510062        5.1013538904179443        3.7807820350635866        172.31456257253754     
   54.416478274369446        5.1014936999154772        3.7679336709872664        176.08249624352482     
   56.867213871060393        5.1016357690864336        3.7548000569736995        179.83729630049851     
   59.317949467751340        5.1017719456984096        3.7420974548371300        183.57939375533564     
   61.915729200243746        5.1019099237141408        3.7290644892952574        187.30845824463091     
   64.513508932736158        5.1020417613473530        3.7164214913578819        191.02487973598880     
   67.111288665228571        5.1021676681935269        3.7041348646477430        194.72901460063656     
   69.864935181670518        5.1022946947479397        3.6914793615320467        198.42049396216862     
   72.618581698112465        5.1024155004528300        3.6791668313720804        202.09966079354069     
   75.537447005540926        5.1025368015903769        3.6664766201460735        205.76613741368678     
   78.456312312969388        5.1026515734736702        3.6541282438666096        209.42026565755339     
   81.375177620397849        5.1027600277665996        3.6421060740549680        213.06237173160835     
   84.294042927826311        5.1028623660924710        3.6303973025701128        216.69276903417847     
   87.212908235254773        5.1029587813501207        3.6189912665858102        220.31176030076429     
   90.131773542683234        5.1030494587313200        3.6078789267631342        223.91963922752743     
   93.050638850111696        5.1031345765084408        3.5970524652499569        227.51669169277739     
   95.969504157540158        5.1032143066460591        3.5865049773192368        231.10319667009662     
   98.888369464968619        5.1032888152782805        3.5762302360466580        234.67942690614328     
   101.80723477239708        5.1033582630841821        3.5662225138484480        238.24564941999174     
   104.72610007982554        5.1034228055864395        3.5564764481744855        241.80212586816623     
   107.64496538725400        5.1034825933924575        3.5469869413727366        245.34911280953895     
   110.56383069468247        5.1035377723928530        3.5377490869027848        248.88686189644173     
   113.48269600211093        5.1035884839285783        3.5287581157735040        252.41562001221524     
   116.40156130953939        5.1036348649353176        3.5200093584095100        255.93562937062475     
   119.32042661696785        5.1036770480715967        3.5114982182062664        259.44712758883099     
   122.23929192439631        5.1037151618354297        3.5032201538740928        262.95034774270511     
   125.15815723182477        5.1037493306730584        3.4951706683074022        266.44551841101253     
   128.07702253925325        5.1037796750823770        3.4873453022420162        269.93286371325456     
   130.99588784668171        5.1038063117128338        3.4797396313591547        273.41260334461373     
   133.91475315411017        5.1038293534631070        3.4723492658175061        276.88495261043124     
   136.83361846153863        5.1038489095773798        3.4651698514341072        280.35012246186534     
   139.75248376896710        5.1038650857407557        3.4581970719270405        283.80831953379237     
   142.67134907639556        5.1038779841740842        3.4514266517928909        287.25974618558524     
   145.59021438382402        5.1038877037283434        3.4448543594941246        290.70460054507936     
   148.50907969125248        5.1038943399785728        3.4384760107290187        294.14307655580836     
   151.42794499868094        5.1038979853173050        3.4322874716259615        297.57536402743432     
   154.34681030610940        5.1038987290473621        3.4262846617460467        301.00164868918034     
   157.26567561353787        5.1038966574738618        3.4204635568301267        304.42211224601044     
   160.18454092096633        5.1038918539952816        3.4148201912451386        307.83693243725560     
   163.10340622839479        5.1038843991934222        3.4093506601096570        311.24628309736528     
   166.02227153582325        5.1038743709220658        3.4040511211009381        314.65033421846624     
   168.94113684325171        5.1038618443942392        3.3989177959386705        318.04925201440489     
   171.86000215068017        5.1038468922678888        3.3939469715680128        321.44319898597291     
   174.77886745810864        5.1038295847658945        3.3891349882194235        324.83233397419235     
   177.87286468398281        5.1038086728528258        3.3842085143545386        328.21654248854691     
   181.15250174340943        5.1037837154310557        3.3791772495529644        331.59571973809989     
   184.62891702640167        5.1037542303518943        3.3740527102494258        334.96977244834932     
   188.31391722637343        5.1037196917497880        3.3688483712630402        338.33862081961234     
   192.22001743834349        5.1036795272971549        3.3635798290567167        341.70220064866908     
   195.73550762911654        5.1036405966772316        3.3590335159515163        345.06123416462060     
   198.89944880081228        5.1036033724256233        3.3550961452398713        348.41633030986048     
   202.06338997250802        5.1035640262419655        3.3513092323441169        351.76763954220462     
   205.22733114420376        5.1035226205212929        3.3476690124987618        355.11530855470340     
   208.39127231589950        5.1034792153829676        3.3441718079882428        358.45948036269164     
   210.41619466578479        5.1034506325209801        3.3419912284962474        361.80147159118786     
   212.56261235666318        5.1034194496608958        3.3397434518906906        365.14121504307855     
   214.70903004754157        5.1033873991988115        3.3375582196597025        368.47877326273823     
   216.85544773841997        5.1033544981252401        3.3354344543538725        371.81420771709207     
   219.00186542929836        5.1033207630086617        3.3333710959599436        375.14757881305201     
   221.14828312017676        5.1032862100067593        3.3313671016840805        378.47894591473607     
   223.29470081105515        5.1032508548717503        3.3294214387208054        381.80836735345690     
   225.56990356338625        5.1032124954412534        3.3274233920187339        385.13579074547562     
   227.84510631571735        5.1031732708179307        3.3254885139695145        388.46127925944512     
   230.12030906804844        5.1031331983388881        3.3236156454269672        391.78489490487209     
   232.39551182037954        5.1030922948811988        3.3218036399588180        395.10669854483092     
   234.80722673785050        5.1030480230988484        3.3199499770592986        398.42664852189023     
   237.36364455036971        5.1030000905305251        3.3180588919791547        401.74470741386938     
   240.07344743164009        5.1029481794969449        3.3161354483233043        405.06084286219266     
   242.94583848578668        5.1028919451285821        3.3141856186192467        408.37502848081192     
   245.99057300318208        5.1028310132750896        3.3122163679815424        411.68724484879345     
   249.21799159162120        5.1027649782934272        3.3102357402287690        414.99748058902225     
   252.63905529536666        5.1026934007117868        3.3082529456550693        418.30573353467730     
   256.26538282133686        5.1026158047663550        3.3062784494703008        421.61201198414761     
   260.10928999886528        5.1025316758077270        3.3043240597365662        424.91633604388420     
   264.18383160704542        5.1024404575734090        3.3024030134066016        428.21873905729080     
   268.50284571171636        5.1023415493220652        3.3005300588892204        431.51926911618000     
   273.08100066266752        5.1022343028241934        3.2987215333274360        434.81799064950741     
   277.93384491067576        5.1021180192974169        3.2969954570964211        438.11498610660385     
   282.78668915868400        5.1019992269500918        3.2954528849928213        441.41043899159666     
   287.63953340669224        5.1018780145594276        3.2940866680913565        444.70452565968804     
   292.49237765470048        5.1017544664391172        3.2928899291602769        447.99741558884830     
   297.34522190270872        5.1016286626900476        3.2918560528088161        451.28927164165714     
   302.19806615071695        5.1015006794360840        3.2909786759437112        454.58025031760087     
   307.05091039872519        5.1013705890458585        3.2902516785223739        457.87050199612327     
   311.90375464673343        5.1012384603414382        3.2896691746041671        461.16017117072744     
   316.75659889474167        5.1011043587946983        3.2892255036853877        464.44939667441281     
   321.60944314274991        5.1009683467121594        3.2889152223168279        467.73831189672961     
   326.46228739075815        5.1008304834090072        3.2887330959932335        471.02704499272284     
   331.31513163876639        5.1006908253729719        3.2886740913098289        474.31571908403265     
   336.16797588677463        5.1005494264186835        3.2887333683805879        477.60445245241323     
   341.02082013478287        5.1004063378330962        3.2889062735083545        480.89335872592159     
   345.87366438279111        5.1002616085125236        3.2891883321048478        484.18254705802644     
   350.72650863079934        5.1001152850918139        3.2895752418478712        487.47212229987434     
   355.57935287880758        5.0999674120661140        3.2900628660771063        490.76218516595145     
   360.43219712681582        5.0998180319057056        3.2906472274130052        494.05283239336444     
   365.28504137482406        5.0996671851643018        3.2913245016052524        497.34415689496967     
   370.13788562283230        5.0995149105812185        3.2920910115907680        500.63624790656041     
   374.99072987084054        5.0993612451777768        3.2929432217668939        503.92919112832732     
   379.84357411884878        5.0992062243482774        3.2938777324684714        507.22306886079576     
   384.69641836685702        5.0990498819458869        3.2948912746389403        510.51796013543469     
   389.54926261486526        5.0988922503637095        3.2959807047025054        513.81394084013721     
   394.40210686287350        5.0987333606113525        3.2971429996181789        517.11108383975534     
   399.25495111088173        5.0985732423872330        3.2983752521196594        520.40945909187496     
   404.10779535888997        5.0984119241468893        3.2996746661269110        523.70913375800183     
   408.96063960689821        5.0982494331675072        3.3010385523365273        527.01017231033836     
   413.81348385490645        5.0980857956089132        3.3024643239696818        530.31263663430809     
   418.66632810291469        5.0979210365711944        3.3039494926903830        533.61658612699853     
   423.51917235092293        5.0977551800247074        3.3054916603275797        536.92207778732609     
   428.66318725381166        5.0975781666969517        3.3071876752237519        540.22926546254985     
   433.80720215670038        5.0973999742061480        3.3089423747470166        543.53820783729691     
   438.95121705958911        5.0972206278389720        3.3107532362958909        546.84896107359282     
   444.09523196247784        5.0970401518650217        3.3126178376057132        550.16157891119849     
   449.23924686536657        5.0968585695910740        3.3145338524846362        553.47611276368309     
   454.38326176825530        5.0966759034122555        3.3164990467264266        556.79261181040954     
   459.52727667114402        5.0964921748603089        3.3185112741964038        560.11112308460599     
   464.67129157403275        5.0963074046491217        3.3205684730803449        563.43169155768635     
   467.96346111188154        5.0961887303478637        3.3219029736109484        566.75359453129727     
   471.25563064973034        5.0960696398500618        3.3232548543227063        570.07684938561999     
   474.54780018757913        5.0959501382016530        3.3246236148599513        573.40147300048000     
   477.83996972542792        5.0958302303291827        3.3260087675084402        576.72748176798848     
   481.13213926327671        5.0957099210438477        3.3274098368513028        580.05489160483978     
   484.42430880112551        5.0955892150454067        3.3288263594233114        583.38371796426304     
   487.71647833897430        5.0954681169259368        3.3302578833846339        586.71397584764770     
   491.00864787682309        5.0953466311734550        3.3317039681976941        590.04567981584535     
   494.30081741467188        5.0952247621754143        3.3331641843136297        593.37884400015901     
   497.59298695252068        5.0951025142220585        3.3346381128720415        596.71348211303109     
   500.88515649036947        5.0949798915096727        3.3361253454007205        600.04960745843186     
   504.17732602821826        5.0948568981436955        3.3376254835351657        603.38723294196700     
   507.46949556606705        5.0947335381417345        3.3391381387355508        606.72637108070251     
   510.76166510391585        5.0946098153841941        3.3406629322463623        610.06703401294885     
   514.25136481403558        5.0944782663060755        3.3422924122161133        613.40932642516498     
   517.95044650676255        5.0943383768523827        3.3440339818964420        616.75336040706145     
   521.87147310105308        5.0941895974928686        3.3458955476365766        620.09925595469804     
   526.02776129100107        5.0940313406540367        3.3478855449439520        623.44714149964204     
   530.43342677234591        5.0938629779618347        3.3500129642075875        626.79715446384967     
   535.10343218257140        5.0936838372818896        3.3522873757094875        630.14944183955913     
   540.05363791741047        5.0934931995434081        3.3547189534880304        633.50416079304716     
   545.30085599633992        5.0932902953322552        3.3573184975342358        636.86147929058143     
   550.86290716000508        5.0930743012380448        3.3600974537382906        640.22157674431969     
   556.75868139349018        5.0928443359395512        3.3630679308977607        643.58464467521742     
   563.00820208098435        5.0925994560122341        3.3662427140252031        646.95088738924267     
   569.63269400972820        5.0923386514413638        3.3696352730672552        650.32052266230994     
   576.65465545419670        5.0920608408240069        3.3732597660554551        653.69378242836535     
