 #              _____________________  _______________________             #
 #              ___  __ \__  __ \_  / / /_  /___  ____/_  ___/             #
 #              __  / / /_  /_/ /  / / /_  __/_  __/  _____ \              #
 #              _  /_/ /_  _, _// /_/ / / /_ _  /___  ____/ /              #
 #              /_____/ /_/ |_| \____/  \__/ /_____/  /____/               #
 #                                                                         #
  
 #        time                      T            heat flux [W.L-2]   in    x              directions   cumulative flux
 #-----------------------------------------------------------------------------------------------

   0.0000000000000000        5.3307000000000002       -3.3483812690176298        3.3483812690176298     
   1.0000000000000000        5.3312589620551893       -3.4943423694566165        6.8427236384742463     
   1.9540000000000002        5.3317634519372827       -3.6222071306418226        10.464930769116069     
   2.8641160000000001        5.3322205906748845       -3.7347285654848430        14.199659334600913     
   3.8288389600000006        5.3326802269930118       -3.8443369310887503        18.043996265689664     
   4.8514452976000007        5.3331417975743669       -3.9506984542397121        21.994694719929377     
   5.9354080154560007        5.3336047874849069       -4.0535072508317640        26.048201970761141     
   7.0844084963833609        5.3340687411520999       -4.1524904588245448        30.200692429585686     
   8.3023490061663630        5.3345332725069339       -4.2474128730949001        34.448105302680588     
   9.5933659465363448        5.3349980739025060       -4.3380809049155955        38.786186207596181     
   10.961843903328527        5.3354629234283841       -4.4243457003228839        43.210531907919062     
   12.412430537528239        5.3359276902644428       -4.5061052744867967        47.716637182405861     
   13.950052369779934        5.3363923377606906       -4.5833055547011270        52.299942737106988     
   15.579931511966731        5.3368569239892025       -4.6559402740119316        56.955883011118921     
   17.307603402684734        5.3373215995864784       -4.7240497221151134        61.679932733234033     
   19.138935606845820        5.3377866027820513       -4.7877184415598171        66.467651174793843     
   21.080147743256571        5.3382522515806805       -4.8470720576886066        71.314723232482450     
   23.137832607851966        5.3387189331144933       -4.9022735532730621        76.216996785755512     
   25.318978564323086        5.3391870901853498       -4.9535194476898052        81.170516233445312     
   27.630993278182473        5.3396572049459570       -5.0010365210814429        86.171552754526758     
   30.081728874873424        5.3401297794813907       -5.0450799422726789        91.216632696799437     
   32.679508607365833        5.3406053127001458       -5.0859339204521694        96.302566617251600     
   35.433155123807786        5.3410842723642897       -5.1239163073172822        101.42648292456889     
   38.352020431236255        5.3415670602093428       -5.1593889247076117        106.58587184927650     
   41.446017657110431        5.3420539668466338       -5.1927757685821723        111.77864761785867     
   44.725654716537058        5.3425451114243057       -5.2245916140570872        117.00323923191576     
   48.202069999529286        5.3430403587802786       -5.2554838684886231        122.25872310040438     
   51.887070199501046        5.3435392040150846       -5.2862907177678586        127.54501381817224     
   55.793170411471110        5.3440406110649441       -5.3181185893049703        132.86313240747720     
   59.933636636159378        5.3445427880738858       -5.3524416002096427        138.21557400768683     
   63.444751994695032        5.3449480139160874       -5.3828643436613426        143.59843835134816     
   67.166534274742830        5.3453544644526172       -5.4176403981180297        149.01607874946620     
   70.888316554790620        5.3457374842161407       -5.4559831800695520        154.47206192953576     
   74.833405771641281        5.3461162681073588       -5.5018631163083720        159.97392504584414     
   79.015200341502975        5.3464855848585291       -5.5578302436195344        165.53175528946366     
   83.447902585556378        5.3468383373949653       -5.6270958873210359        171.15885117678471     
   88.146566964252983        5.3471650038923988       -5.7136537540796120        176.87250493086432     
   93.127151205671382        5.3474529506537873       -5.8224029620019033        182.69490789286624     
   98.406570501574890        5.3476856048947239       -5.9592644763854663        188.65417236925171     
   104.00275495523260        5.3478414819293043       -6.1312798382317117        194.78545220748342     
   109.59893940889032        5.3478968301349186       -6.3326018861798552        201.11805409366326     
   115.53089492976750        5.3478304140160136       -6.5812983798210460        207.69935247348431     
   121.81876778189731        5.3476047862476870       -6.8867906341336109        214.58614310761791     
   128.48391300515490        5.3471738670143489       -7.2595298353503743        221.84567294296829     
   135.54896694180795        5.3464816787617435       -7.7108706805660665        229.55654362353437     
   143.03792411466020        5.3454611205432627       -8.2528735099163253        237.80941713345069     
   150.97621871788357        5.3440328531931476       -8.8980356728224805        246.70745280627318     
   159.39081099730035        5.3421043706840496       -9.6589609815760689        256.36641378784924     
   168.31027881348214        5.3395693281881167       -10.547985350948460        266.91439913879771     
   177.76491469863484        5.3363071811005724       -11.576786228087116        278.49118536688479     
   187.78682873689669        5.3321831596447939       -12.756012417328883        291.24719778421365     
   198.41005761745427        5.3270485766154589       -14.094961185293355        305.34215896950701     
   209.03328649801185        5.3211445507822157       -15.512028202341138        320.85418717184814     
   219.65651537856942        5.3144720232380944       -16.996552516771956        337.85073968862008     
   230.27974425912700        5.3070381621050027       -18.538275234036178        356.38901492265626     
   240.90297313968458        5.2988554155085197       -20.127445058589068        376.51645998124530     
   252.16359575307561        5.2893606498235304       -21.854350345926587        398.37081032717191     
   264.09985572327008        5.2784037396413019       -23.720351733726350        422.09116206089828     
   276.03611569346458        5.2665891645979190       -25.610568319954616        447.70173038085289     
   287.97237566365908        5.2539554775142294       -27.514620574576956        475.21635095542985     
   300.62481123206521        5.2396929264769057       -29.537233952630693        504.75358490806053     
   314.03639293457576        5.2236582606476691       -31.674130025060297        536.42771493312080     
   328.25266953923693        5.2057081435895149       -33.918937934078677        570.34665286719951     
   343.32192274017774        5.1857014117354794       -36.263265037919318        606.60991790511878     
   359.29533113317501        5.1635011499097390       -38.696983244630658        645.30690114974948     
   376.22714402975214        5.1389761573279307       -41.208810166894345        686.51571131664377     
   394.17486570012386        5.1120011505228167       -43.787302344833080        730.30301366147683     
   413.19945067071791        5.0824551827269033       -46.422127094065388        776.72514075554227     
   432.22403564131196        5.0520857757061597       -48.958854447051706        825.68399520259402     
   451.24862061190601        5.0210042510789279       -51.400435520150140        877.08443072274417     
   471.41468068073573        4.9873707926734347       -53.886453386943131        930.97088410968729     
   491.58074074956545        4.9531478248999505       -56.275209239459997        987.24609334914726     
   511.74680081839517        4.9184214454540456       -58.570562979163590        1045.8166563283110     
   533.12282449135466        4.8811386181663643       -60.901741281260293        1106.7183976095712     
   555.78140958469169        4.8411898115939893       -63.260329108556000        1169.9787267181273     
   579.79950978362899        4.7984763392208745       -65.635341366996798        1235.6140680851240     
   605.25869599450255        4.7529141395755028       -68.013684454397875        1303.6277525395219     
   630.71788220537610        4.7071813666309357       -70.256143440608994        1373.8838959801310     
   657.70461958890201        4.6586334110096468       -72.486344644911100        1446.3702406250420     
   684.69135697242791        4.6101202706185029       -74.575690059881026        1520.9459306849230     
   711.67809435595382        4.5617363376594877       -76.529656163140146        1597.4755868480631     
   738.66483173947972        4.5135663324168531       -78.353303680398554        1675.8288905284617     
   765.65156912300563        4.4656869747497572       -80.051227509520004        1755.8801180379817     
   794.25751074954314        4.4153447120376121       -81.714548675228457        1837.5946667132102     
   824.57980887367285        4.3625302125683652       -83.330704929441211        1920.9253716426515     
   854.90210699780255        4.3103329654815381       -84.810031388837828        2005.7354030314893     
   887.04374300938002        4.2557580885080100       -86.237147944997190        2091.9725509764867     
   921.11387718165224        4.1988069018073748       -87.605965802856630        2179.5785167793433     
   955.18401135392446        4.1427829681836510       -88.846232015505635        2268.4247487948492     
   991.29835357653292        4.0844442026725796       -90.036884505945039        2358.4616333007943     
   1027.4126957991414        4.0271296991569985       -91.124278072881722        2449.5859113736760     
   1065.6938985551064        3.9674872562799139       -92.179041760252474        2541.7649531339284     
   1106.2719734764294        3.9054701078572678       -93.200302550093497        2634.9652556840219     
   1146.8500483977523        3.8446122959468414       -94.136412284470481        2729.1016679684926     
   1189.8628078143545        3.7813704516562927       -95.038584861653476        2824.1402528301460     
   1235.4563327959529        3.7157408010095336       -95.895368732224227        2920.0356215623701     
   1283.7854692764472        3.6477520929150455       -96.693287593900152        3016.7289091562702     
   1335.0143539457713        3.5774198323651367       -97.432505719989109        3114.1614148762592     
   1386.2432386150954        3.5088115394005133       -98.066560626985023        3212.2279755032441     
   1437.4721232844195        3.4419439742170788       -98.592347733166832        3310.8203232364108     
   1488.7010079537436        3.3768452049940447       -99.008992803101179        3409.8293160395119     
   1543.0036257032270        3.3098131812373905       -99.344314221165575        3509.1736302606773     
   1597.3062434527105        3.2447325997078051       -99.582129875801940        3608.7557601364792     
   1651.6088612021940        3.1815609322112688       -99.735175493451607        3708.4909356299308     
   1705.9114789516775        3.1202052377361871       -99.826102030856205        3808.3170376607873     
   1763.4722537661301        3.0570436675129695       -99.881673558704918        3908.1987112194920     
   1821.0330285805826        2.9955921493498145       -99.913048989105747        4008.1117602085978     
   1882.0474498839021        2.9322296024748207       -99.921550520951953        4108.0333107295501     
   1946.7227364654209        2.8668854871696032       -99.915079125193316        4207.9483898547433     
   2011.3980230469397        2.8032649695477474       -99.883855024020576        4307.8322448787640     
   2079.9538268233496        2.7377746960519671       -99.795365102044130        4407.6276099808083     
   2148.5096305997595        2.6742001257905286       -99.657137899819759        4507.2847478806279     
   2221.1787826027539        2.6089406116228280       -99.452135483059465        4606.7368833636874     
   2293.8479346057484        2.5457644824958163       -99.195265365749407        4705.9321487294364     
   2366.5170866087428        2.4846120851289681       -98.893051539346970        4804.8252002687832     
   2443.5463877319171        2.4220377771334345       -98.516401854187521        4903.3416021229705     
   2525.1974469224820        2.3578595358107659       -98.132634494222643        5001.4742366171931     
   2606.8485061130468        2.2957122269459997       -97.736014755835782        5099.2102513730288     
   2688.4995653036117        2.2355193402088904       -97.319569720124036        5196.5298210931523     
   2775.0496880456103        2.1737513436283824       -96.872658507787818        5293.4024796009398     
   2866.7928181521288        2.1103333825584687       -96.410793367482427        5389.8132729684221     
   2964.0405360650384        2.0449801072824654       -95.981463222061421        5485.7947361904835     
   3061.2882539779480        1.9816995511505029       -95.506766297778086        5581.3015024882616     
   3158.5359718908576        1.9205539882854503       -94.988260150992119        5676.2897626392532     
   3261.6185528785418        1.8577229354700810       -94.475146173861546        5770.7649088131147     
   3364.7011338662260        1.7970132435906474       -93.919918327864693        5864.6848271409790     
   3467.7837148539102        1.7386028113216092       -93.297031891543398        5957.9818590325222     
   3570.8662958415944        1.6822198073581038       -92.678877303615764        6050.6607363361381     
   3673.9488768292786        1.6271988713932799       -92.162658937333489        6142.8233952734718     
   3783.2164126762236        1.5708366349841025       -91.555340124055618        6234.3787353975276     
   3892.4839485231687        1.5163317887942864       -90.939200491595443        6325.3179358891230     
   4008.3075365209306        1.4604119286666313       -90.306761199135522        6415.6246970882585     
   4131.0805397985587        1.4031980353018350       -89.628899549630162        6505.2535966378882     
   4253.8535430761867        1.3481042772484408       -88.922248946065309        6594.1758455839536     
   4383.9929265504725        1.2916902143559545       -88.212900904856525        6682.3887464888103     
   4521.9406730332148        1.2331541256737977       -87.608440484200315        6769.9971869730107     
   4659.8884195159571        1.1770736942445490       -86.857871277360687        6856.8550582503713     
   4797.8361659986995        1.1232521988182000       -86.089548929875377        6942.9446071802467     
   4935.7839124814418        1.0706884375814771       -85.456826106413899        7028.4014332866609     
   5073.7316589641841        1.0201452873239720       -84.736081844323749        7113.1375151309849     
   5211.6794054469265       0.97131890561315271       -84.032053833878109        7197.1695689648632     
   5357.9040167186331       0.92186812913543259       -83.226083327595774        7280.3956522924591     
   5504.1286279903397       0.87382352052922740       -82.521952860219884        7362.9176051526792     
   5650.3532392620464       0.82738595439884388       -81.801296517928748        7444.7189016706079     
   5805.3513272100554       0.77916792930082324       -81.161941576105249        7525.8808432467131     
   5969.6493004349450       0.72920733562659590       -80.520808960695575        7606.4016522074089     
   6133.9472736598345       0.68167308898287615       -79.733955898112313        7686.1356081055210     
   6298.2452468847241       0.63595532427227464       -78.961264195836279        7765.0968723013575     
   6462.5432201096137       0.58983494712968687       -78.512128985533394        7843.6090012868908     
   6626.8411933345033       0.54587491248202902       -77.808344055871260        7921.4173453427620     
   6791.1391665593928       0.50474196688117023       -76.955603175715936        7998.3729485184776     
   6955.4371397842824       0.46489682445283609       -76.231608348114591        8074.6045568665922     
   7119.7351130091720       0.42521142222016628       -75.689338840277458        8150.2938957068700     
   7284.0330862340616       0.38728605896672103       -74.975004509755834        8225.2689002166262     
   7458.1889378524447       0.34742963054164977       -74.429119365293786        8299.6980195819197     
   7632.3447894708279       0.31013569967270149       -73.643689882482462        8373.3417094644028     
   7806.5006410892111       0.27436605215930998       -72.892932988859116        8446.2346424532625     
   7991.1058438046975       0.23551356179232358       -72.448464699232815        8518.6831071524957     
   8138.7900059770864       0.20333661107370740       -72.269460758610307        8590.9525679111066     
   8295.3352178798195       0.17312119610780530       -71.460343425429514        8662.4129113365361     
   8451.8804297825518       0.14421733152201593       -70.773530778561906        8733.1864421150985     
   8617.8183543994473       0.11407845360163288       -70.200573720713834        8803.3870158358131     
   8783.7562790163429        8.3581023766771845E-002  -69.778413908110863        8873.1654297439236     
   8949.6942036332384        5.4971905691163003E-002  -69.083967612205726        8942.2493973561286     
   9125.5884037271480        2.4345607517003653E-002  -68.675934973203638        9010.9253323293324     
   9301.4826038210576       -5.2945124146518419E-003  -68.135148698108452        9079.0604810274417     
   9477.3768039149672       -3.3361557885176529E-002  -67.494704992473501        9146.5551860199157     
   9653.2710040088768       -6.1140634629008650E-002  -66.968984615865338        9213.5241706357810     
   9829.1652041027864       -9.0848625333901256E-002  -66.800611766369840        9280.3247824021510     
   10005.059404196696      -0.11845498277251792       -66.825062766539830        9347.1498451686912     
   10191.507256296241      -0.14470567330589512       -66.239922759878752        9413.3897679285692     
   10389.141979521759      -0.17249665705561557       -66.072794754955623        9479.4625626835241     
   10586.776702747276      -0.19932002446923480       -66.444951165741685        9545.9075138492663     
   10784.411425972794      -0.22691509276045951       -67.313440448682144        9613.2209542979490     
   10984.411425972794      -0.25262353568705509       -68.301776658747556        9681.5227309566963     
   11184.411425972794      -0.27988795741926770       -69.254568596015062        9750.7772995527121     
   11384.411425972794      -0.30496467745255168       -69.968954952178223        9820.7462545048911     
   11584.411425972794      -0.32987215877099491       -72.055570364287505        9892.8018248691787     
   11784.411425972794      -0.35500414055480906       -74.558992376102125        9967.3608172452805     
   11984.411425972794      -0.38209836646950990       -76.807488300400308        10044.168305545682     
   12184.411425972794      -0.40440631579208519       -79.099679200639329        10123.267984746321     
   12384.411425972794      -0.42678327080124207       -82.370670068487357        10205.638654814808     
   12584.411425972794      -0.45057087066440560       -85.864320679130444        10291.502975493939     
