 #              _____________________  _______________________             #
 #              ___  __ \__  __ \_  / / /_  /___  ____/_  ___/             #
 #              __  / / /_  /_/ /  / / /_  __/_  __/  _____ \              #
 #              _  /_/ /_  _, _// /_/ / / /_ _  /___  ____/ /              #
 #              /_____/ /_/ |_| \____/  \__/ /_____/  /____/               #
 #                                                                         #
  
 #        time                      T            heat flux [W.L-2]   in    x              directions   cumulative flux
 #-----------------------------------------------------------------------------------------------

   0.0000000000000000        5.1906999999999996       -4.1881772849247927        4.1881772849247927     
   1.0000000000000000        4.8188283560711538       -101.31943263016365        105.50760991508844     
   1.9540000000000002        4.4950648697423317       -183.34202117452904        288.84963108961745     
   2.8641160000000001        4.2115608231179200       -252.95963279542966        541.80926388504713     
   3.8288389600000006        3.9356132071564618       -318.40668717340463        860.21595105845176     
   4.8514452976000007        3.6678225764447445       -379.48526473088071        1239.7012157893325     
   5.9354080154560007        3.4086919190185019       -436.04290971285894        1675.7441255021915     
   7.0844084963833609        3.1586177140220268       -487.97575493669740        2163.7198804388890     
   8.3023490061663630        2.9178834027520590       -535.23054692112760        2698.9504273600169     
   9.5933659465363448        2.6866556387636940       -577.80543608252242        3276.7558634425395     
   10.961843903328527        2.4649835885701288       -615.74943959634095        3892.5053030388804     
   12.412430537528239        2.2528014346660230       -649.16053750148001        4541.6658405403605     
   13.950052369779934        2.0499340919671671       -678.18242345629562        5219.8482639966560     
   15.579931511966731        1.8561059946117759       -702.99999698257511        5922.8482609792309     
   17.307603402684734        1.6709526519872202       -723.83374988788239        6646.6820108671136     
   19.138935606845820        1.4940345220965912       -740.93326100838522        7387.6152718754984     
   21.080147743256571        1.3248526190464267       -754.57006536391077        8142.1853372394089     
   23.137832607851966        1.1628651712879436       -765.03020139347393        8907.2155386328832     
   25.318978564323086        1.0075045884308913       -772.60675906303538        9679.8222976959187     
   27.630993278182473       0.85819398419122817       -777.59274957802950        10457.415047273947     
   30.081728874873424       0.71436254447042635       -780.27459328433986        11237.689640558287     
   32.679508607365833       0.57545912097068042       -780.92647731949273        12018.616117877780     
   35.433155123807786       0.44096356529528069       -779.80577207635679        12798.421889954137     
   38.352020431236255       0.31039548464445998       -777.14962090397796        13575.571510858115     
   41.446017657110431       0.18332028287856306       -773.17273745091063        14348.744248309025     
   44.725654716537058        5.9352532862313290E-002  -768.06636706047607        15116.810615369501     
   48.202069999529286       -6.1843109229430704E-002  -761.99829979741367        15878.808915166914     
   51.887070199501046      -0.18055310412009157       -755.11376898703884        16633.922684153953     
   55.793170411471110      -0.29701791007837097       -800.91548970700910        17434.838173860961     
   59.933636636159378      -0.41143606659693643       -798.28933406397925        18233.127507924939     
   63.444751994695032      -0.50048860207961177       -733.24849497117259        18966.376002896111     
   67.166534274742830      -0.53514471539671904       -721.49467162454778        19687.870674520658     
   70.888316554790620      -0.55814850100460456       -699.97251207711076        20387.843186597769     
   74.833405771641281      -0.57884645975635451       -681.50792611894838        21069.351112716718     
   79.015200341502975      -0.59773143010113461       -665.15626665460297        21734.507379371320     
   83.447902585556378      -0.61529579606400320       -650.39850326085707        22384.905882632178     
   88.146566964252983      -0.63200876616348689       -636.91100605013446        23021.816888682311     
   93.127151205671382      -0.64829515912489899       -624.42979720216613        23646.246685884478     
   98.406570501574890      -0.66451665154019490       -612.69938718364995        24258.946073068128     
   104.00275495523260      -0.68334769758914526       -601.21733125639594        24860.163404324525     
   109.59893940889032      -0.70572493787796409       -590.28675584859559        25450.450160173121     
   115.53089492976750      -0.73294573657807949       -579.65592849997677        26030.106088673099     
   121.81876778189731      -0.74965976330162509       -569.93585379914680        26600.041942472246     
   128.48391300515490      -0.76782351535520754       -560.07180954338037        27160.113752015626     
   135.54896694180795      -0.78765253960789028       -550.12525118929841        27710.239003204926     
   143.03792411466020      -0.80982451033495861       -540.14418216936656        28250.383185374292     
   150.97621871788357      -0.83528086750525499       -530.19643401864971        28780.579619392942     
   159.39081099730035      -0.86545148543665051       -520.42346569430731        29301.003085087250     
   168.31027881348214      -0.90259318286844747       -511.11392207364599        29812.117007160898     
   177.76491469863484      -0.95033685681275015       -502.83747755021847        30314.954484711117     
   187.78682873689669       -1.0145835970954755       -496.63082598383380        30811.585310694951     
   198.41005761745427       -1.0820226190286650       -495.77398777154542        31307.359298466497     
   209.03328649801185       -1.1389137024437659       -496.43413315832504        31803.793431624821     
   219.65651537856942       -1.1809091210158460       -497.59210547090794        32301.385537095728     
   230.27974425912700       -1.2118687849722156       -499.47839951159432        32800.863936607326     
   240.90297313968458       -1.2369716439922647       -502.41080597085255        33303.274742578178     
   252.16359575307561       -1.2628006100879725       -505.87610568775835        33809.150848265934     
   264.09985572327008       -1.3031037863696648       -509.45351043448119        34318.604358700417     
   276.03611569346458       -1.3522020408528337       -512.74948454054072        34831.353843240955     
   287.97237566365908       -1.3806572466600400       -514.23471843903405        35345.588561679986     
   300.62481123206521       -1.4113633769051943       -515.19670033369152        35860.785262013676     
   314.03639293457576       -1.4433791727175678       -515.61087815654162        36376.396140170218     
   328.25266953923693       -1.4787630889095691       -515.59863943485550        36891.994779605076     
   343.32192274017774       -1.5192408192874827       -515.16804781566884        37407.162827420747     
   359.29533113317501       -1.5677486508338681       -514.28858982906786        37921.451417249817     
   376.22714402975214       -1.6292226197809427       -512.92089351417269        38434.372310763989     
   394.17486570012386       -1.7119173032676549       -511.11916508474701        38945.491475848736     
   413.19945067071791       -1.7710217173805767       -504.43676627554771        39449.928242124282     
   432.22403564131196       -1.8067553875928488       -497.16781758799937        39947.096059712283     
   451.24862061190601       -1.8420174729004803       -496.21331311495510        40443.309372827236     
   471.41468068073573       -1.9332331942774597       -509.44156210565922        40952.750934932898     
   491.58074074956545       -2.0387414710822021       -524.37388994308856        41477.124824875988     
   511.74680081839517       -2.1078085676477958       -534.96704258623913        42012.091867462230     
   533.12282449135466       -2.1706612247196073       -542.24104985767610        42554.332917319909     
   555.78140958469169       -2.2308145091607008       -547.50061780119836        43101.833535121106     
   579.79950978362899       -2.2874981522375566       -550.55668973775664        43652.390224858864     
   605.25869599450255       -2.3431589752031341       -550.62084129874779        44203.011066157611     
   630.71788220537610       -2.3981732321233058       -546.47797842834188        44749.489044585949     
   657.70461958890201       -2.4500786269744221       -545.58985132436703        45295.078895910316     
   684.69135697242791       -2.4909731583053123       -543.77879109486594        45838.857687005184     
   711.67809435595382       -2.5250330856609193       -540.21742631186942        46379.075113317056     
   738.66483173947972       -2.5542032773760264       -535.83615359495457        46914.911266912008     
   765.65156912300563       -2.5805329646012991       -531.24145452191431        47446.152721433922     
   794.25751074954314       -2.6070535545114897       -525.74011408620584        47971.892835520128     
   824.57980887367285       -2.6483635775416756       -517.47142681185744        48489.364262331983     
   854.90210699780255       -2.6989534542100038       -508.83993790198514        48998.204200233966     
   887.04374300938002       -2.7419066821573397       -504.67672058460988        49502.880920818578     
   921.11387718165224       -2.7809964594270085       -499.84314784505204        50002.724068663629     
   955.18401135392446       -2.8166438929757582       -494.41224478178816        50497.136313445415     
   991.29835357653292       -2.8492916372938684       -488.48368706683692        50985.620000512252     
   1027.4126957991414       -2.8785680782592191       -482.92035621495700        51468.540356727208     
   1065.6938985551064       -2.9104797811554834       -475.99434234781705        51944.534699075026     
   1106.2719734764294       -2.9736206609924043       -465.41053598821526        52409.945235063242     
   1146.8500483977523       -3.0424278697646994       -454.64904053212615        52864.594275595366     
   1189.8628078143545       -3.1014756711612250       -446.24923679053200        53310.843512385894     
   1235.4563327959529       -3.1597120501853166       -438.01681567203218        53748.860328057926     
   1283.7854692764472       -3.2158901530046826       -429.89670274610290        54178.757030804030     
   1335.0143539457713       -3.2703795185017324       -421.93614148487882        54600.693172288906     
   1386.2432386150954       -3.3137150149241732       -414.90002317881141        55015.593195467714     
   1437.4721232844195       -3.3490706096138645       -409.17261888493283        55424.765814352650     
   1488.7010079537436       -3.3796135250908201       -404.28152445940259        55829.047338812052     
   1543.0036257032270       -3.4167152976482500       -399.06613381194865        56228.113472623998     
   1597.3062434527105       -3.4487112341830377       -393.89202991915522        56622.005502543150     
   1651.6088612021940       -3.4773399048181144       -389.33033934537286        57011.335841888525     
   1705.9114789516775       -3.5042873385944269       -385.09497084855718        57396.430812737082     
   1763.4722537661301       -3.5307797117646667       -381.14901184212414        57777.579824579203     
   1821.0330285805826       -3.5554460765339959       -377.24397418263925        58154.823798761841     
   1882.0474498839021       -3.5830997067735573       -373.30840242309921        58528.132201184941     
   1946.7227364654209       -3.6266643501417897       -367.84087376452101        58895.973074949463     
   2011.3980230469397       -3.6669700645377903       -361.42087821804034        59257.393953167506     
   2079.9538268233496       -3.7097274863924410       -355.23043853749613        59612.624391705001     
   2148.5096305997595       -3.7485873818977327       -348.96719523576706        59961.591586940769     
   2221.1787826027539       -3.7879063627881777       -343.13220857513789        60304.723795515907     
   2293.8479346057484       -3.8201702897272236       -337.59953475142657        60642.323330267332     
   2366.5170866087428       -3.8489803267274545       -332.88732903886654        60975.210659306198     
   2443.5463877319171       -3.8769236892870964       -328.63216410073068        61303.842823406929     
   2525.1974469224820       -3.9076426316973079       -324.26773025772025        61628.110553664650     
   2606.8485061130468       -3.9334155747948092       -319.85372043351782        61947.964274098165     
   2688.4995653036117       -3.9573610941368371       -316.00445776614322        62263.968731864312     
   2775.0496880456103       -3.9812444238569111       -312.41009361992212        62576.378825484237     
   2866.7928181521288       -4.0057654273982735       -308.78198094703816        62885.160806431275     
   2964.0405360650384       -4.0395446948980522       -304.61265649182604        63189.773462923098     
   3061.2882539779480       -4.0703397842003879       -299.57315455563332        63489.346617478732     
   3158.5359718908576       -4.1019402449463946       -294.80160108728580        63784.148218566021     
   3261.6185528785418       -4.1360340419103592       -289.91713236429860        64074.065350930323     
   3364.7011338662260       -4.1648878778526814       -284.92738163206604        64358.992732562387     
   3467.7837148539102       -4.1911040637654189       -280.61842712092187        64639.611159683307     
   3570.8662958415944       -4.2154445599177892       -276.67850105794707        64916.289660741255     
   3673.9488768292786       -4.2390335027897654       -272.97382207101867        65189.263482812275     
   3783.2164126762236       -4.2618471193630727       -269.44512322959645        65458.708606041873     
   3892.4839485231687       -4.2812839329814700       -266.08791726387807        65724.796523305748     
   4008.3075365209306       -4.3022256728650321       -263.08719624189382        65987.883719547637     
   4131.0805397985587       -4.3267354982006943       -259.77972865242134        66247.663448200052     
   4253.8535430761867       -4.3498129283078253       -256.06921022501217        66503.732658425070     
   4383.9929265504725       -4.3767157195490807       -252.43494928508036        66756.167607710144     
   4521.9406730332148       -4.4036203167583139       -248.35728332693952        67004.524891037086     
   4659.8884195159571       -4.4273364060792009       -244.33280281889799        67248.857693855985     
   4797.8361659986995       -4.4497717738584761       -240.73313506016589        67489.590828916145     
   4935.7839124814418       -4.4707802487977455       -237.33495659931208        67726.925785515457     
   5073.7316589641841       -4.4895947133473442       -234.18171293709091        67961.107498452548     
   5211.6794054469265       -4.5068528663521983       -231.34402392413679        68192.451522376679     
   5357.9040167186331       -4.5250940562617545       -228.69437031491734        68421.145892691595     
   5504.1286279903397       -4.5428730191570024       -225.90702112907715        68647.052913820677     
   5650.3532392620464       -4.5611484832032678       -223.16013785991217        68870.213051680592     
   5805.3513272100554       -4.5812162926182882       -220.33249285525326        69090.545544535838     
   5969.6493004349450       -4.6021284299178351       -217.25981877573059        69307.805363311563     
   6133.9472736598345       -4.6206598545433213       -214.11433430912498        69521.919697620688     
   6298.2452468847241       -4.6390836513696403       -211.27100930981322        69733.190706930502     
   6462.5432201096137       -4.6560949856321656       -208.48052656481923        69941.671233495319     
   6626.8411933345033       -4.6719483877876069       -205.89988141328692        70147.571114908613     
   6791.1391665593928       -4.6864590457151314       -203.50218652696319        70351.073301435579     
   6955.4371397842824       -4.7010053533008307       -201.27251693675626        70552.345818372341     
   7119.7351130091720       -4.7155624821296946       -199.03800944380350        70751.383827816142     
   7284.0330862340616       -4.7299711333774521       -196.80636959238262        70948.190197408519     
   7458.1889378524447       -4.7459909078028844       -194.57396569746527        71142.764163105981     
   7632.3447894708279       -4.7598209701388452       -192.17056998948539        71334.934733095462     
   7806.5006410892111       -4.7741203652615196       -190.03444825738390        71524.969181352848     
   7991.1058438046975       -4.7887710848555773       -187.85071704238888        71712.819898395232     
   8138.7900059770864       -4.7964671446273641       -185.72360696656636        71898.543505361798     
   8295.3352178798195       -4.8100904037671688       -184.38424495189324        72082.927750313698     
   8451.8804297825518       -4.8185945086260116       -182.43938016394802        72265.367130477651     
   8617.8183543994473       -4.8312334414174689       -181.03507108814918        72446.402201565797     
   8783.7562790163429       -4.8404631629366852       -179.18641494625484        72625.588616512046     
   8949.6942036332384       -4.8518718426651199       -177.71003231261582        72803.298648824668     
   9125.5884037271480       -4.8627689613753331       -175.98851244838153        72979.287161273052     
   9301.4826038210576       -4.8736032668780069       -174.31665762188032        73153.603818894931     
   9477.3768039149672       -4.8840794306797006       -172.66198021611731        73326.265799111046     
   9653.2710040088768       -4.8943346306248969       -171.05883072021879        73497.324629831259     
   9829.1652041027864       -4.9042532571939406       -169.49254681660091        73666.817176647863     
   10005.059404196696       -4.9139392461097406       -167.97535076830829        73834.792527416168     
   10191.507256296241       -4.9243699161607033       -166.48400784986740        74001.276535266035     
   10389.141979521759       -4.9345211376759428       -164.90270003020203        74166.179235296237     
   10586.776702747276       -4.9440844970169886       -163.35711875116726        74329.536354047406     
   10784.411425972794       -4.9537420905840550       -161.88649703344490        74491.422851080846     
   10984.411425972794       -4.9632572614608970       -160.40920814413406        74651.832059224980     
   11184.411425972794       -4.9725373887032411       -158.95329085146471        74810.785350076447     
   11384.411425972794       -4.9816243727626661       -157.53255842299222        74968.317908499434     
   11584.411425972794       -4.9904490036962814       -156.14303284837541        75124.460941347803     
   11784.411425972794       -4.9990690114824625       -154.79251006057143        75279.253451408367     
   11984.411425972794       -5.0074449023483982       -153.47431560323778        75432.727767011602     
   12184.411425972794       -5.0155245859268813       -152.19471408240432        75584.922481094007     
   12384.411425972794       -5.0233136875173585       -150.96049412761315        75735.882975221626     
   12584.411425972794       -5.0308914883703029       -149.76914287302384        75885.652118094644     
