 #              _____________________  _______________________             #
 #              ___  __ \__  __ \_  / / /_  /___  ____/_  ___/             #
 #              __  / / /_  /_/ /  / / /_  __/_  __/  _____ \              #
 #              _  /_/ /_  _, _// /_/ / / /_ _  /___  ____/ /              #
 #              /_____/ /_/ |_| \____/  \__/ /_____/  /____/               #
 #                                                                         #
  
 #        time                      T            heat flux [W.L-2]   in    x              directions   cumulative flux
 #-----------------------------------------------------------------------------------------------

   0.0000000000000000        5.4707999999999997       0.83978116654787593       0.83978116654787593     
   1.0000000000000000        5.4701489910704417        1.0097745510957088        1.8495557176435846     
   1.9540000000000002        5.4695614244353603        1.1586921104527281        3.0082478280963127     
   2.8641160000000001        5.4690290064478271        1.2897402749972027        4.2979881030935152     
   3.8288389600000006        5.4684936795450616        1.4173962235548467        5.7153843266483619     
   4.8514452976000007        5.4679560997445602        1.5412717197777126        7.2566560464260750     
   5.9354080154560007        5.4674168666165164        1.6610113160775895        8.9176673625036642     
   7.0844084963833609        5.4668765104317227        1.7762984618364790        10.693965824340143     
   8.3023490061663630        5.4663354802520212        1.8868610664610490        12.580826890801193     
   9.5933659465363448        5.4657941334030520        1.9924763139915289        14.573303204792722     
   10.961843903328527        5.4652527267585427        2.0929745364998853        16.666277741292607     
   12.412430537528239        5.4647114102325718        2.1882419747638600        18.854519716056465     
   13.950052369779934        5.4641702228202957        2.2782222867767157        21.132742002833183     
   15.579931511966731        5.4636290914487837        2.3629167069123453        23.495658709745527     
   17.307603402684734        5.4630878328001522        2.4423828094417326        25.938041519187259     
   19.138935606845820        5.4625461581529127        2.5167318872691866        28.454773406456447     
   21.080147743256571        5.4620036811603621        2.5861250169207990        31.040898423377246     
   23.137832607851966        5.4614599283537606        2.6507679403037807        33.691666363681030     
   25.318978564323086        5.4609143520316286        2.7109049483416698        36.402571312022701     
   27.630993278182473        5.4603663450829298        2.7668119972878005        39.169383309310504     
   30.081728874873424        5.4598152571996534        2.8187893216831563        41.988172630993660     
   32.679508607365833        5.4592604118701438        2.8671538257991620        44.855326456792824     
   35.433155123807786        5.4587011235134320        2.9122315364955043        47.767557993288328     
   38.352020431236255        5.4581367141192043        2.9543503845502994        50.721908377838631     
   41.446017657110431        5.4575665287972095        2.9938335502127287        53.715741928051358     
   44.725654716537058        5.4569899497105627        3.0309935646710775        56.746735492722436     
   48.202069999529286        5.4564064079632475        3.0661273063733443        59.812862799095782     
   51.887070199501046        5.4558153931253637        3.0995119741875050        62.912374773283290     
   55.793170411471110        5.4552164602011866        3.1314020630167052        66.043776836299998     
   59.933636636159378        5.4546092339657930        3.1620273160151893        69.205804152315181     
   63.444751994695032        5.4541124754293220        3.1860739439123575        72.391878096227543     
   67.166534274742830        5.4536045978604868        3.2097407048856006        75.601618801113148     
   70.888316554790620        5.4531139232855201        3.2318530581579203        78.833471859271071     
   74.833405771641281        5.4526116177196950        3.2537978385456885        82.087269697816765     
   79.015200341502975        5.4520976233959768        3.2756168640709422        85.362886561887706     
   83.447902585556378        5.4515719110100509        3.2973459080883654        88.660232469976066     
   88.146566964252983        5.4510344788971032        3.3190142156271256        91.979246685603187     
   93.127151205671382        5.4504853513504665        3.3406441843990979        95.319890870002283     
   98.406570501574890        5.4499245761008916        3.3622511985658106        98.682142068568098     
   104.00275495523260        5.4493522209944452        3.3838436006177668        102.06598566918586     
   109.59893940889032        5.4488002855030055        3.4042644233645003        105.47025009255036     
   115.53089492976750        5.4482364435945367        3.4247288157821685        108.89497890833253     
   121.81876778189731        5.4476607757027011        3.4452243658085715        112.34020327414110     
   128.48391300515490        5.4470733664912672        3.4657334741590486        115.80593674830016     
   135.54896694180795        5.4464742995771163        3.4862335860547882        119.29217033435495     
   143.03792411466020        5.4458636518204635        3.5066974847000605        122.79886781905500     
   150.97621871788357        5.4452414872532211        3.5270936391795451        126.32596145823454     
   159.39081099730035        5.4446078507173450        3.5473865998302303        129.87334805806478     
   168.31027881348214        5.4439627612830872        3.5675374342456951        133.44088549231049     
   177.76491469863484        5.4433062055123536        3.5875041968490593        137.02838968915955     
   187.78682873689669        5.4426381306245641        3.6072424243864196        140.63563211354597     
   198.41005761745427        5.4419584376117145        3.6267056487400122        144.26233776228597     
   209.03328649801185        5.4413046971392092        3.6448354786410997        147.90717324092708     
   219.65651537856942        5.4406746849000793        3.6617431917463201        151.56891643267340     
   230.27974425912700        5.4400664250620192        3.6775277702847511        155.24644420295814     
   240.90297313968458        5.4394781561382404        3.6922777262206692        158.93872192917883     
   252.16359575307561        5.4388751876292645        3.7068443074522919        162.64556623663111     
   264.09985572327008        5.4382572136138112        3.7211843731324716        166.36675060976359     
   276.03611569346458        5.4376586594384966        3.7345133081837538        170.10126391794734     
   287.97237566365908        5.4370779599861532        3.7469113300607950        173.84817524800812     
   300.62481123206521        5.4364808202622958        3.7590927465979660        177.60726799460608     
   314.03639293457576        5.4358667728061230        3.7710166495426591        181.37828464414872     
   328.25266953923693        5.4352352901904890        3.7826415339487811        185.16092617809750     
   343.32192274017774        5.4345857774725941        3.7939254216143565        188.95485159971184     
   359.29533113317501        5.4339175641334325        3.8048259472222550        192.75967754693409     
   376.22714402975214        5.4332298954627891        3.8153003981590845        196.57497794509317     
   394.17486570012386        5.4325219233415769        3.8253057000332640        200.40028364512642     
   413.19945067071791        5.4317926963704242        3.8347983415491895        204.23508198667562     
   432.22403564131196        5.4310826523983851        3.8432830897478936        208.07836507642352     
   451.24862061190601        5.4303899916745859        3.8508520108546360        211.92921708727815     
   471.41468068073573        5.4296734173285293        3.8579417112593823        215.78715879853752     
   491.58074074956545        5.4289728229787855        3.8641817882350353        219.65134058677256     
   511.74680081839517        5.4282867309770868        3.8696457608138775        223.52098634758644     
   533.12282449135466        5.4275742116074781        3.8746421295040232        227.39562847709047     
   555.78140958469169        5.4268338653857429        3.8791240137777070        231.27475249086817     
   579.79950978362899        5.4260641538211374        3.8830421138888780        235.15779460475704     
   605.25869599450255        5.4252633855382157        3.8863444118794064        239.04413901663645     
   630.71788220537610        5.4244761662185565        3.8888694444648833        242.93300846110134     
   657.70461958890201        5.4236552875626662        3.8907485503337309        246.82375701143508     
   684.69135697242791        5.4228465276663274        3.8918961656709961        250.71565317710608     
   711.67809435595382        5.4220485981040181        3.8923697204747567        254.60802289758084     
   738.66483173947972        5.4212603534976740        3.8922193135891070        258.50024221116996     
   765.65156912300563        5.4204807715457246        3.8914886607241290        262.39173087189408     
   794.25751074954314        5.4196630632254728        3.8901072214790027        266.28183809337310     
   824.57980887367285        5.4188048599019005        3.8880067102567186        270.16984480362981     
   854.90210699780255        5.4179541942243921        3.8853087968031983        274.05515360043302     
   887.04374300938002        5.4170598581009948        3.8818160065312854        277.93696960696428     
   921.11387718165224        5.4161189638771710        3.8774388382232092        281.81440844518750     
   955.18401135392446        5.4151841006083377        3.8724149215042178        285.68682336669173     
   991.29835357653292        5.4141987536224647        3.8663865600073266        289.55320992669903     
   1027.4126957991414        5.4132179299059384        3.8596698236148317        293.41287975031383     
   1065.6938985551064        5.4121821252957485        3.8517834823963568        297.26466323271018     
   1106.2719734764294        5.4110871416003503        3.8425584857931634        301.10722171850335     
   1146.8500483977523        5.4099937923266941        3.8324526341676872        304.93967435267103     
   1189.8628078143545        5.4088351149499676        3.8207195533028417        308.76039390597390     
   1235.4563327959529        5.4076053649026123        3.8070840080469410        312.56747791402086     
   1283.7854692764472        5.4062978473169192        3.7912069451343173        316.35868485915518     
   1335.0143539457713        5.4049046780971626        3.7726703340556784        320.13135519321088     
   1386.2432386150954        5.4035015052122324        3.7523064261678387        323.88366161937870     
   1437.4721232844195        5.4020854390482365        3.7299854015701319        327.61364702094880     
   1488.7010079537436        5.4006535013270245        3.7055711653383856        331.31921818628717     
   1543.0036257032270        5.3991141601974686        3.6771740881466224        334.99639227443379     
   1597.3062434527105        5.3975495829611493        3.6460926309745534        338.64248490540837     
   1651.6088612021940        5.3959559418894720        3.6121632915729402        342.25464819698129     
   1705.9114789516775        5.3943293501782339        3.5752282869334833        345.82987648391480     
   1763.4722537661301        5.3925634651294008        3.5325225052026314        349.36239898911742     
   1821.0330285805826        5.3907511933509458        3.4860975747423688        352.84849656385978     
   1882.0474498839021        5.3887725040332839        3.4325315995490051        356.28102816340879     
   1946.7227364654209        5.3866037431105447        3.3706741664516624        359.65170232986043     
   2011.3980230469397        5.3843572271421536        3.3035842357764018        362.95528656563681     
   2079.9538268233496        5.3818811589394349        3.2264423679700518        366.18172893360685     
   2148.5096305997595        5.3793032215576222        3.1431642287968371        369.32489316240367     
   2221.1787826027539        5.3764481085187432        3.0479105968487743        372.37280375925246     
   2293.8479346057484        5.3734629353306174        2.9456390362597595        375.31844279551223     
   2366.5170866087428        5.3703406606082744        2.8363529296744820        378.15479572518672     
   2443.5463877319171        5.3668693113203751        2.7126818800531511        380.86747760523986     
   2525.1974469224820        5.3629997047479225        2.5729162631000082        383.44039386833987     
   2606.8485061130468        5.3589328038615198        2.4246480237270016        385.86504189206687     
   2688.4995653036117        5.3546622225062466        2.2680932309917221        388.13313512305859     
   2775.0496880456103        5.3499001064105673        2.0931393566503611        390.22627447970893     
   2866.7928181521288        5.3445816321911170        1.8979823277379984        392.12425680744695     
   2964.0405360650384        5.3386342542387606        1.6807518292585029        393.80500863670545     
   3061.2882539779480        5.3323730029069782        1.4537362813679757        395.25874491807343     
   3158.5359718908576        5.3257953350395972        1.2175415693669820        396.47628648744040     
   3261.6185528785418        5.3184662391365167       0.95760324403265529        397.43388973147307     
   3364.7011338662260        5.3107807695124736       0.68884500095915124        398.12273473243221     
   3467.7837148539102        5.3027407973740210       0.41201797963146397        398.53475271206366     
   3570.8662958415944        5.2943495191404306       0.12786553503441231        398.66261824709807     
   3673.9488768292786        5.2856113106322518      -0.16288383013186436        398.82550207722994     
   3783.2164126762236        5.2759655084204153      -0.47764869979729246        399.30315077702721     
   3892.4839485231687        5.2659440345076147      -0.79817268608546688        400.10132346311269     
   4008.3075365209306        5.2549094529255092       -1.1434770778531584        401.24480054096585     
   4131.0805397985587        5.2427635736361839       -1.5146960384006938        402.75949657936656     
   4253.8535430761867        5.2301829815851795       -1.8901351327298213        404.64963171209638     
   4383.9929265504725        5.2163773872614989       -2.2917605524978821        406.94139226459424     
   4521.9406730332148        5.2012378744328371       -2.7204085572691330        409.66180082186338     
   4659.8884195159571        5.1856161203643945       -3.1508935841575645        412.81269440602097     
   4797.8361659986995        5.1695358634023245       -3.5822246643618025        416.39491907038274     
   4935.7839124814418        5.1530210266453071       -4.0135039424008863        420.40842301278360     
   5073.7316589641841        5.1360955375910908       -4.4439222891777153        424.85234530196129     
   5211.6794054469265        5.1187831770826753       -4.8727543221685661        429.72509962412988     
   5357.9040167186331        5.1000253559048643       -5.3247690457825749        435.04986866991248     
   5504.1286279903397        5.0808883049732962       -5.7735618073393722        440.82343047725186     
   5650.3532392620464        5.0613989294498722       -6.2185414219425468        447.04197189919444     
   5805.3513272100554        5.0403755206218106       -6.6853270728061212        453.72729897200054     
   5969.6493004349450        5.0177169555348478       -7.1740064299579087        460.90130540195844     
   6133.9472736598345        4.9947193807123993       -7.6560551137562172        468.55736051571466     
   6298.2452468847241        4.9714162182691464       -8.1310467629440595        476.68840727865870     
   6462.5432201096137        4.9478395236079802       -8.5986369778486065        485.28704425650733     
   6626.8411933345033        4.9240199524490169       -9.0585556100642979        494.34559986657160     
   6791.1391665593928        4.8999867445243002       -9.5105990352851286        503.85619890185671     
   6955.4371397842824        4.8757677300954319       -9.9546215634459667        513.81082046530264     
   7119.7351130091720        4.8513893591314847       -10.390526506210511        524.20134697151320     
   7284.0330862340616        4.8268767468753033       -10.818257994055347        535.01960496556853     
   7458.1889378524447        4.8007708284406005       -11.262447085857886        546.28205205142638     
   7632.3447894708279        4.7745690885897831       -11.697443105432908        557.97949515685923     
   7806.5006410892111        4.7482967574548152       -12.123290801736788        570.10278595859597     
   7991.1058438046975        4.7203970049858119       -12.564497008441585        582.66728296703752     
   8138.7900059770864        4.6980582543089611       -12.910993567502965        595.57827653454046     
   8295.3352178798195        4.6743733655004007       -13.271095951501239        608.84937248604172     
   8451.8804297825518        4.6506972714651509       -13.624110481672473        622.47348296771418     
   8617.8183543994473        4.6256268228495436       -13.990472130776727        636.46395509849094     
   8783.7562790163429        4.6005979064023723       -14.349139594296853        650.81309469278779     
   8949.6942036332384        4.5756248913055932       -14.700258941474031        665.51335363426176     
   9125.5884037271480        4.5492322891807762       -15.064143377587580        680.57749701184935     
   9301.4826038210576        4.5229334080424861       -15.419907061664023        695.99740407351339     
   9477.3768039149672        4.4967421654406285       -15.767734368142621        711.76513844165606     
   9653.2710040088768        4.4706715199653102       -16.107811479543226        727.87294992119928     
   9829.1652041027864        4.4447335108333004       -16.440326518658356        744.31327643985765     
   10005.059404196696        4.4189392826686129       -16.765471124275813        761.07874756413344     
   10191.507256296241        4.3917711181769938       -17.102076816419927        778.18082438055342     
   10389.141979521759        4.3631812225583735       -17.450116081865939        795.63094046241940     
   10586.776702747276        4.3348116634214930       -17.789664755088204        813.42060521750761     
   10784.411425972794        4.3066733477274166       -18.120983575489849        831.54158879299746     
   10984.411425972794        4.2784453665213427       -18.448097348591240        849.98968614158866     
   11184.411425972794        4.2504738055137432       -18.767288794372639        868.75697493596135     
   11384.411425972794        4.2227670888004472       -19.078799238804628        887.83577417476602     
   11584.411425972794        4.1953327586992559       -19.382865995192976        907.21864016995903     
   11784.411425972794        4.1681775137223607       -19.679722512787478        926.89836268274655     
   11984.411425972794        4.1413072408444300       -19.969599324943825        946.86796200769038     
   12184.411425972794        4.1147270389941779       -20.252724578131126        967.12068658582155     
   12384.411425972794        4.0884412926189135       -20.529319070321900        987.65000565614343     
   12584.411425972794        4.0624537840347248       -20.799589158049478        1008.4495948141929     
