 #              _____________________  _______________________             #
 #              ___  __ \__  __ \_  / / /_  /___  ____/_  ___/             #
 #              __  / / /_  /_/ /  / / /_  __/_  __/  _____ \              #
 #              _  /_/ /_  _, _// /_/ / / /_ _  /___  ____/ /              #
 #              /_____/ /_/ |_| \____/  \__/ /_____/  /____/               #
 #                                                                         #
  
 #        time                      T            heat flux [W.L-2]   in    x              directions   cumulative flux
 #-----------------------------------------------------------------------------------------------

   0.0000000000000000        5.5797999999999996       -5.0279799919777215        5.0279799919777215     
   1.0000000000000000        5.5792416527970206       -4.8821760407559465        9.9101560327336671     
   1.9540000000000002        5.5787377174985382       -4.7544495600959591        14.664605592829627     
   2.8641160000000001        5.5782810808881926       -4.6420506517174580        19.306656244547085     
   3.8288389600000006        5.5778219487337015       -4.5325631116837615        23.839219356230846     
   4.8514452976000007        5.5773608830809112       -4.4263214215944666        28.265540777825311     
   5.9354080154560007        5.5768983970415489       -4.3236328298257583        32.589173607651070     
   7.0844084963833609        5.5764349434347213       -4.2247724496986914        36.813946057349760     
   8.3023490061663630        5.5759709040787628       -4.1299788974641949        40.943924954813951     
   9.5933659465363448        5.5755065800576311       -4.0394506462800654        44.983375601094018     
   10.961843903328527        5.5750421832659978       -3.9533432589223563        48.936718860016377     
   12.412430537528239        5.5745778294981747       -3.8717676380563644        52.808486498072739     
   13.950052369779934        5.5741135332880010       -3.7947893984949905        56.603275896567730     
   15.579931511966731        5.5736492046312520       -3.7224294217414928        60.325705318309225     
   17.307603402684734        5.5731846476325035       -3.6546656010222924        63.980370919331520     
   19.138935606845820        5.5727195610196327       -3.5914357275851505        67.571806646916670     
   21.080147743256571        5.5722535403679947       -3.5326414097784049        71.104448056695077     
   23.137832607851966        5.5717860817807159       -3.4781528595915705        74.582600916286651     
   25.318978564323086        5.5713165866898446       -3.4278143313815979        78.010415247668249     
   27.630993278182473        5.5708443673835522       -3.3814499589702813        81.391865206638528     
   30.081728874873424        5.5703686528341549       -3.3388697140573487        84.730734920695880     
   32.679508607365833        5.5698885944051941       -3.2998752037865828        88.030610124482465     
   35.433155123807786        5.5694032710551555       -3.2642650397962529        91.294875164278722     
   38.352020431236255        5.5689116937286194       -3.2318395445615682        94.526714708840288     
   41.446017657110431        5.5684128087275484       -3.2024046110733733        97.729119319913664     
   44.725654716537058        5.5679054999768756       -3.1757745945643951        100.90489391447807     
   48.202069999529286        5.5673885902281866       -3.1517741845212179        104.05666809899928     
   51.887070199501046        5.5668608413702172       -3.1302392751222210        107.18690737412150     
   55.793170411471110        5.5663209541224825       -3.1110169160687806        110.29792429019028     
   59.933636636159378        5.5657675674677378       -3.0939644777254345        113.39188876791572     
   63.444751994695032        5.5653103157883219       -3.0815330381774326        116.47342180609314     
   67.166534274742830        5.5648375656242122       -3.0702861538575044        119.54370795995065     
   70.888316554790620        5.5643754238154868       -3.0606828147168792        122.60439077466754     
   74.833405771641281        5.5638961380156493       -3.0520695261586637        125.65646030082620     
   79.015200341502975        5.5633986502766435       -3.0444252833248098        128.70088558415100     
   83.447902585556378        5.5628818376430491       -3.0377243135107923        131.73860989766177     
   88.146566964252983        5.5623445130309728       -3.0319354030039323        134.77054530066570     
   93.127151205671382        5.5617854270467113       -3.0270212281007116        137.79756652876642     
   98.406570501574890        5.5612032708145112       -3.0229377251547995        140.82050425392123     
   104.00275495523260        5.5605966798468085       -3.0196335332004431        143.84013778712168     
   109.59893940889032        5.5599995266738986       -3.0171564309654202        146.85729421808711     
   115.53089492976750        5.5593761101864176       -3.0152680738089361        149.87256229189603     
   121.81876778189731        5.5587250213424504       -3.0139091561412097        152.88647144803724     
   128.48391300515490        5.5580448138695440       -3.0130123597193719        155.89948380775661     
   135.54896694180795        5.5573340108674705       -3.0125025930474671        158.91198640080407     
   143.03792411466020        5.5565911116758091       -3.0122975943195760        161.92428399512363     
   150.97621871788357        5.5558145985518044       -3.0123090466119140        164.93659304173553     
   159.39081099730035        5.5550029424704634       -3.0124444196740376        167.94903746140957     
   168.31027881348214        5.5541546070099077       -3.0126098418644411        170.96164730327402     
   177.76491469863484        5.5532680487702146       -3.0127144218598869        173.97436172513392     
   187.78682873689669        5.5523417120315948       -3.0126765835678699        176.98703830870178     
   198.41005761745427        5.5513740143184274       -3.0124331449821837        179.99947145368398     
   209.03328649801185        5.5504197663279538       -3.0119889359026275        183.01146038958660     
   219.65651537856942        5.5494782445182098       -3.0113798491499297        186.02284023873653     
   230.27974425912700        5.5485487411418477       -3.0106708671359028        189.03351110587244     
   240.90297313968458        5.5476305403219781       -3.0099526394074023        192.04346374527984     
   252.16359575307561        5.5466690589599699       -3.0093174479325775        195.05278119321241     
   264.09985572327008        5.5456620317587584       -3.0089799555836847        198.06176114879611     
   276.03611569346458        5.5446659289021323       -3.0091996331987243        201.07096078199484     
   287.97237566365908        5.5436794270777900       -3.0102210447767566        204.08118182677160     
   300.62481123206521        5.5426428021226357       -3.0125198184538395        207.09370164522545     
   314.03639293457576        5.5415519264531854       -3.0167216098860483        210.11042325511150     
   328.25266953923693        5.5404016146334367       -3.0236537695077086        213.13407702461922     
   343.32192274017774        5.5391852765832903       -3.0343895345247760        216.16846655914398     
   359.29533113317501        5.5378944823953145       -3.0502962549421588        219.21876281408615     
   376.22714402975214        5.5365184267569312       -3.0730860556668267        222.29184886975298     
   394.17486570012386        5.5350432831854661       -3.1048665796753201        225.39671544942831     
   413.19945067071791        5.5334514421001835       -3.1481887001321716        228.54490414956049     
   432.22403564131196        5.5318215245297306       -3.2021191811510223        231.74702333071153     
   451.24862061190601        5.5301435094175622       -3.2675219319065776        235.01454526261810     
   471.41468068073573        5.5282988371380704       -3.3506175918753356        238.36516285449343     
   491.58074074956545        5.5263764128457105       -3.4482044289982841        241.81336728349171     
   511.74680081839517        5.5243647581978124       -3.5608487033682144        245.37421598685992     
   533.12282449135466        5.5221190076512014       -3.6976535967443191        249.07186958360424     
   555.78140958469169        5.5195962959081601       -3.8625690266108856        252.93443861021512     
   579.79950978362899        5.5167460301147049       -4.0598975376461954        256.99433614786130     
   605.25869599450255        5.5135089630261707       -4.2942628045989562        261.28859895246023     
   630.71788220537610        5.5100400992071830       -4.5534695825498197        265.84206853501007     
   657.70461958890201        5.5060859189035778       -4.8554505315891605        270.69751906659923     
   684.69135697242791        5.5018401453061632       -5.1837428666276644        275.88126193322688     
   711.67809435595382        5.4972906531764885       -5.5372584686888402        281.41852040191571     
   738.66483173947972        5.4924275229248440       -5.9147692911558005        287.33328969307149     
   765.65156912300563        5.4872429397727780       -6.3149406918680908        293.64823038493961     
   794.25751074954314        5.4813792896917057       -6.7628982811373826        300.41112866607699     
   824.57980887367285        5.4747451652619077       -7.2623624892361329        307.67349115531312     
   854.90210699780255        5.4676898976853598       -7.7843285560530742        315.45781971136620     
   887.04374300938002        5.4597382315913006       -8.3603501830304889        323.81816989439670     
   921.11387718165224        5.4507815050822392       -8.9934787859419778        332.81164868033869     
   955.18401135392446        5.4413034555506812       -9.6462176126975070        342.45786629303620     
   991.29835357653292        5.4306821643634482       -10.356786476796415        352.81465276983261     
   1027.4126957991414        5.4195002848213445       -11.082814617959754        363.89746738779235     
   1065.6938985551064        5.4070370739404847       -11.866200466553529        375.76366785434590     
   1106.2719734764294        5.3931660949120612       -12.708178717599464        388.47184657194538     
   1146.8500483977523        5.3786629805009074       -13.558199310502673        402.03004588244806     
   1189.8628078143545        5.3626141312817985       -14.464501162175084        416.49454704462318     
   1235.4563327959529        5.3448856526118700       -15.427205096064753        431.92175214068794     
   1283.7854692764472        5.3253388807514845       -16.445942512733769        448.36769465342172     
   1335.0143539457713        5.3038312124318132       -17.519819435557544        465.88751408897929     
   1386.2432386150954        5.2815939519516739       -18.584293517665198        484.47180760664446     
   1437.4721232844195        5.2586839221535104       -19.636476718170400        504.10828432481486     
   1488.7010079537436        5.2351560621399020       -20.673917858460406        524.78220218327522     
   1543.0036257032270        5.2095852693737488       -21.754574611240443        546.53677679451562     
   1597.3062434527105        5.1834436343251848       -22.814107572883039        569.35088436739863     
   1651.6088612021940        5.1567890391897233       -23.850752468269292        593.20163683566795     
   1705.9114789516775        5.1296767856311671       -24.863047422299335        618.06468425796731     
   1763.4722537661301        5.1004859921483128       -25.907361690143144        643.97204594811046     
   1821.0330285805826        5.0709021286223548       -26.921985635586715        670.89403158369714     
   1882.0474498839021        5.0391665035713338       -27.963456975007393        698.85748855870452     
   1946.7227364654209        5.0051741284564688       -29.028941319611853        727.88642987831633     
   2011.3980230469397        4.9708931603203013       -30.056176061870666        757.94260594018704     
   2079.9538268233496        4.9342993546650327       -31.102743084957066        789.04534902514411     
   2148.5096305997595        4.8975107885041158       -32.107901591073549        821.15325061621763     
   2221.1787826027539        4.8583613304361695       -33.128018192043022        854.28126880826062     
   2293.8479346057484        4.8191171435302076       -34.103965284554597        888.38523409281527     
   2366.5170866087428        4.7798316161439107       -35.036903028449885        923.42213712126511     
   2443.5463877319171        4.7382002055320420       -35.978825800773663        959.40096292203873     
   2525.1974469224820        4.6941452202342955       -36.926140709168763        996.32710363120748     
   2606.8485061130468        4.6502191904905814       -37.824183808140958        1034.1512874393484     
   2688.4995653036117        4.6064699751912137       -38.674949549633119        1072.8262369889815     
   2775.0496880456103        4.5603434939764096       -39.526123427722077        1112.3523604167035     
   2866.7928181521288        4.5117767646774354       -40.374530490505940        1152.7268909072095     
   2964.0405360650384        4.4607104700323035       -41.217257701266739        1193.9441486084763     
   3061.2882539779480        4.4100953213481144       -42.007230262637393        1235.9513788711138     
   3158.5359718908576        4.3599610448812305       -42.747842637457687        1278.6992215085716     
   3261.6185528785418        4.3073872699431206       -43.481122991392375        1322.1803444999639     
   3364.7011338662260        4.2554049693912352       -44.165920877451896        1366.3462653774159     
   3467.7837148539102        4.2040342596203004       -44.804904791585216        1411.1511701690010     
   3570.8662958415944        4.1532932879258198       -45.400351280109220        1456.5515214491102     
   3673.9488768292786        4.1031955948636005       -45.954846846027287        1502.5063682951375     
   3783.2164126762236        4.0508252782595351       -46.499702267928392        1549.0060705630658     
   3892.4839485231687        3.9991948706517073       -47.004445245317029        1596.0105158083829     
   4008.3075365209306        3.9453019799628408       -47.497474135501193        1643.5079899438842     
   4131.0805397985587        3.8891150203440574       -47.976218383939077        1691.4842083278234     
   4253.8535430761867        3.8338667670360986       -48.413903520909692        1739.8981118487332     
   4383.9929265504725        3.7763541969162300       -48.834917067155956        1788.7330289158890     
   4521.9406730332148        3.7165539365357452       -49.237948421863450        1837.9709773377524     
   4659.8884195159571        3.6578967073845732       -49.601537629100420        1887.5725149668529     
   4797.8361659986995        3.6003660963965980       -49.928137857545721        1937.5006528243985     
   4935.7839124814418        3.5439420506423054       -50.220785761820423        1987.7214385862189     
   5073.7316589641841        3.4886041189283743       -50.481991151672993        2038.2034297378918     
   5211.6794054469265        3.4343329425404381       -50.713802360056874        2088.9172320979487     
   5357.9040167186331        3.3779866587314782       -50.927911604239227        2139.8451437021881     
   5504.1286279903397        3.3228024768560207       -51.112465113584506        2190.9576088157728     
   5650.3532392620464        3.2687579251727050       -51.269807159057159        2242.2274159748299     
   5805.3513272100554        3.2127136961349678       -51.409868561078113        2293.6372845359078     
   5969.6493004349450        3.1546466295166677       -51.533253091838937        2345.1705376277469     
   6133.9472736598345        3.0978747899154007       -51.633282597602772        2396.8038202253497     
   6298.2452468847241        3.0423648549963338       -51.710679148428191        2448.5144993737777     
   6462.5432201096137        2.9880623605400096       -51.770148722167484        2500.2846480959452     
   6626.8411933345033        2.9349177976333261       -51.813820010810254        2552.0984681067553     
   6791.1391665593928        2.8829118776182896       -51.839513299105597        2603.9379814058607     
   6955.4371397842824        2.8320344154820423       -51.846258059747221        2655.7842394656077     
   7119.7351130091720        2.7822559656799992       -51.837001013540373        2707.6212404791481     
   7284.0330862340616        2.7335444686850252       -51.813606847195942        2759.4348473263440     
   7458.1889378524447        2.6830601735918425       -51.776139510983342        2811.2109868373273     
   7632.3447894708279        2.6336980386444506       -51.725231039413472        2862.9362178767406     
   7806.5006410892111        2.5854434149359280       -51.659803222348401        2914.5960210990888     
   7991.1058438046975        2.5354801445663804       -51.579792598877653        2966.1758136979665     
   8138.7900059770864        2.4962147343284120       -51.514238274815852        3017.6900519727824     
   8295.3352178798195        2.4553585070161663       -51.440552921607406        3069.1306048943898     
   8451.8804297825518        2.4152699229896291       -51.358597869283400        3120.4892027636733     
   8617.8183543994473        2.3736403659837859       -51.261260449501727        3171.7504632131750     
   8783.7562790163429        2.3328495151993107       -51.156806724233000        3222.9072699374078     
   8949.6942036332384        2.2928740880135745       -51.046062150949631        3273.9533320883575     
   9125.5884037271480        2.2513795345270711       -50.923789395939750        3324.8771214842973     
   9301.4826038210576        2.2107309756279765       -50.797574723501462        3375.6746962077987     
   9477.3768039149672        2.1709126134410925       -50.665965102051601        3426.3406613098505     
   9653.2710040088768        2.1319035038771226       -50.529676969533384        3476.8703382793838     
   9829.1652041027864        2.0936423089427096       -50.394844370821993        3527.2651826502056     
   10005.059404196696        2.0560801868100813       -50.262450072193374        3577.5276327223992     
   10191.507256296241        2.0170641726665215       -50.116816398507410        3627.6444491209068     
   10389.141979521759        1.9766224212425476       -49.953911287611440        3677.5983604085181     
   10586.776702747276        1.9370904977375689       -49.783745846178583        3727.3821062546967     
   10784.411425972794        1.8984138648145426       -49.612723533729962        3776.9948297884266     
   10984.411425972794        1.8601210926123823       -49.437826995425361        3826.4326567838521     
   11184.411425972794        1.8226311937436686       -49.263636348213254        3875.6962931320654     
   11384.411425972794        1.7859193044588759       -49.089113844472308        3924.7854069765376     
   11584.411425972794        1.7499542901752285       -48.915301743384468        3973.7007087199222     
   11784.411425972794        1.7147279696249655       -48.739930540618523        4022.4406392605406     
   11984.411425972794        1.6801715672350057       -48.570317855422203        4071.0109571159628     
   12184.411425972794        1.6462951451715560       -48.399147792431513        4119.4101049083947     
   12384.411425972794        1.6131474912327382       -48.219548218478295        4167.6296531268727     
   12584.411425972794        1.5807191620167620       -48.035891601259777        4215.6655447281328     
