 #              _____________________  _______________________             #
 #              ___  __ \__  __ \_  / / /_  /___  ____/_  ___/             #
 #              __  / / /_  /_/ /  / / /_  __/_  __/  _____ \              #
 #              _  /_/ /_  _, _// /_/ / / /_ _  /___  ____/ /              #
 #              /_____/ /_/ |_| \____/  \__/ /_____/  /____/               #
 #                                                                         #
  
 #        time                      T            heat flux [W.L-2]   in    x              directions   cumulative flux
 #-----------------------------------------------------------------------------------------------

   0.0000000000000000        4.9545000000000003        6.9455336284279667        6.9455336284279667     
   1.0000000000000000        4.9541207017617097        7.0625121830940163        14.008045811521983     
   1.8999999999999999        4.9537970368744375        7.1595123606953397        21.167558172217323     
   2.7100000000000000        4.9535190636211146        7.2406352364079449        28.408193408625266     
   3.5200000000000000        4.9532534806092317        7.3160666973142350        35.724260105939500     
   4.3300000000000001        4.9529994261166959        7.3862522929643317        43.110512398903829     
   5.1400000000000006        4.9527561055384988        7.4516006708935674        50.562113069797398     
   5.9500000000000011        4.9525227858363516        7.5124867067281844        58.074599776525581     
   6.7600000000000016        4.9522987904586788        7.5692543666670167        65.643854143192598     
   7.5700000000000021        4.9520834946907790        7.6222193252588513        73.266073468451452     
   8.3800000000000026        4.9518763213984265        7.6716713594137023        80.937744827865160     
   9.1900000000000031        4.9516767371313293        7.7178765378098504        88.655621365675017     
   10.000000000000004        4.9514842485557002        7.7610792232205936        96.416700588895608     
   10.810000000000004        4.9512983986277259        7.8015040648583067        104.21820465375392     
   11.668600000000005        4.9511083564395957        7.8414775114278248        112.05968216518174     
   12.578716000000005        4.9509141825600107        7.8808819507606485        119.94056411594239     
   13.543438960000005        4.9507159315457034        7.9196022300107662        127.86016634595316     
   14.508161920000004        4.9505247064920272        7.9555334491139362        135.81569979506710     
   15.530768257600005        4.9503293100667554        7.9907647350029505        143.80646453007006     
   16.614730975456006        4.9501297535921243        8.0251982079387592        151.83166273800882     
   17.763731456383365        4.9499260328921064        8.0587416116999790        159.89040434970880     
   18.912731937310724        4.9497294959017486        8.0896108758912284        167.98001522560003     
   20.130672447093726        4.9495285685874224        8.1196253767982007        176.09964060239824     
   21.421689387463708        4.9493231858778577        8.1487124347913849        184.24835303718962     
   22.790167344255888        4.9491132574789605        8.1768065233707290        192.42515956056036     
   24.158645301048068        4.9489104224289555        8.2024503146976233        200.62760987525797     
   25.609231935247781        4.9487026620781629        8.2271790579949791        208.85478893325296     
   27.146853767499476        4.9484898086863698        8.2509445960990284        217.10573352935199     
   28.684475599751170        4.9482836432022035        8.2725332632921003        225.37826679264410     
   30.314354741937969        4.9480718996679594        8.2932497687557198        233.67151656139981     
   32.042026632655976        4.9478543217515165        8.3130595833439624        241.98457614474378     
   33.769698523373982        4.9476429385084488        8.3309665593993110        250.31554270414310     
   35.601030727535068        4.9474251223681467        8.3480625519193072        258.66360525606240     
   37.432362931696154        4.9472129261293123        8.3634910413927503        267.02709629745516     
   39.373575068106902        4.9469936500344831        8.3781943679363255        275.40529066539148     
   41.314787204517650        4.9467794382837367        8.3914387896167462        283.79672945500823     
   43.372472069113044        4.9465574462750075        8.4040348106820009        292.20076426569022     
   45.430156933708439        4.9463399792253142        8.4153568674387138        300.61612113312896     
   47.611302890179559        4.9461139727823120        8.4260996884679198        309.04222082159686     
   49.792448846650679        4.9458919654819775        8.4357331312474049        317.47795395284425     
   52.104463560510062        4.9456605958763706        8.4448507320250439        325.92280468486928     
   54.416478274369446        4.9454327114484782        8.4530064309295838        334.37581111579885     
   56.867213871060393        4.9451945737057441        8.4607058488444498        342.83651696464329     
   59.317949467751340        4.9449594185111900        8.4675766913726047        351.30409365601588     
   61.915729200243746        4.9447130476625034        8.4740488176624371        359.77814247367832     
   64.513508932736158        4.9444691687528977        8.4798140162318081        368.25795648991010     
   67.111288665228571        4.9442274282565055        8.4849627471052660        376.74291923701537     
   69.864935181670518        4.9439732172235660        8.4898208931665948        385.23274013018198     
   72.618581698112465        4.9437207180026954        8.4941606769276738        393.72690080710964     
   75.537447005540926        4.9434546580589123        8.4982618286475002        402.22516263575716     
   78.456312312969388        4.9431898976022497        8.5019364983014860        410.72709913405862     
   81.375177620397849        4.9429261848104975        8.5052477481390731        419.23234688219770     
   84.294042927826311        4.9426633011900671        8.5082505595068412        427.74059744170455     
   87.212908235254773        4.9424010574148012        8.5109929520631926        436.25159039376774     
   90.131773542683234        4.9421392897218128        8.5135169238635715        444.76510731763130     
   93.050638850111696        4.9418778567794330        8.5158592457628455        453.28096656339414     
   95.969504157540158        4.9416166369575620        8.5180521364563813        461.79901869985054     
   98.888369464968619        4.9413555259427824        8.5201238390238867        470.31914253887442     
   101.80723477239708        4.9410944347581331        8.5220991440300722        478.84124168290447     
   104.90123199827126        4.9408176109171986        8.5241102825462427        487.36535196545071     
   108.18086905769789        4.9405240141700437        8.5261755605323497        495.89152752598307     
   111.65728434069011        4.9402125331008335        8.5283168596072709        504.41984438559035     
   115.34228454066186        4.9398819819034943        8.5305598778271019        512.95040426341745     
   119.24838475263194        4.9395310973967197        8.5329343381807163        521.48333860159812     
   123.38885097732020        4.9391585363457908        8.5354741550381998        530.01881275663629     
   127.77774517548977        4.9387628731614361        8.5382175478743374        538.55703030451059     
   132.42997302554951        4.9383425980992994        8.5412070858744915        547.09823739038507     
   137.08220087560926        4.9379214408919667        8.5442969589690954        555.64253434935415     
   141.73442872566901        4.9374994084565396        8.5475015550798403        564.19003590443401     
   146.38665657572875        4.9370765213848493        8.5508315947596252        572.74086749919366     
   151.03888442578850        4.9366528111646266        8.5542947333336379        581.29516223252733     
   155.69111227584824        4.9362283178744164        8.5578960647463411        589.85305829727372     
   160.34334012590799        4.9358030882719239        8.5616385442740359        598.41469684154777     
   164.99556797596773        4.9353771742093997        8.5655233440659142        606.98022018561369     
   169.64779582602748        4.9349506313211862        8.5695501529029006        615.54977033851662     
   174.30002367608722        4.9345235176403053        8.5737173863090632        624.12348772482574     
   179.23138519715056        4.9340702077777800        8.5782893695252209        632.70177709435097     
   184.45862840947768        4.9335891465027490        8.5833045285312739        641.28508162288222     
   189.99950621454443        4.9330787044706979        8.5888031205835347        649.87388474346574     
   195.87283668791517        4.9325371781537513        8.5948269124018051        658.46871165586754     
   202.09856698968818        4.9319627903289041        8.6014187613892688        667.07013041725679     
   208.69784110956755        4.9313536911772555        8.6086220904076427        675.67875250766440     
   215.69307167663970        4.9307079608447770        8.6164804025793860        684.29523291024384     
   222.68830224371186        4.9300623292581642        8.6245409736131577        692.91977388385703     
   229.68353281078402        4.9294169727269717        8.6327833506285785        701.55255723448556     
   236.67876337785617        4.9287720587303658        8.6411872563971670        710.19374449088275     
   243.67399394492833        4.9281277457539403        8.6497327735131542        718.84347726439591     
   250.66922451200048        4.9274841832745437        8.6584004865173796        727.50187775091331     
   257.66445507907264        4.9268415118569182        8.6671715898279125        736.16904934074125     
   264.65968564614479        4.9261998633337702        8.6760279678378112        744.84507730857911     
   271.65491621321695        4.9255593610470285        8.6849522523315663        753.53002956091063     
   278.65014678028911        4.9249201201328399        8.6939278614339770        762.22395742234460     
   285.64537734736126        4.9242822478365991        8.7029390235514139        770.92689644589598     
   292.64060791443342        4.9236458438473534        8.7119707891315077        779.63886723502753     
   299.63583848150557        4.9230110006432009        8.7210090325986336        788.35987626762619     
   306.63106904857773        4.9223778038412354        8.7300404463978794        797.08991671402407     
   313.62629961564988        4.9217463325470083        8.7390525287533940        805.82896924277748     
   320.62153018272204        4.9211166594977946        8.7480333427061687        814.57700258548368     
   328.03647458381852        4.9204513065461706        8.7575051132929218        823.33450769877663     
   335.89631564898076        4.9197484785942667        8.7674770924744667        832.10198479125108     
   344.22774717805277        4.9190063217609934        8.7779556170931521        840.87994040834428     
   352.55917870712477        4.9182670882704462        8.7883278349505449        849.66826824329485     
   360.89061023619678        4.9175308521322689        8.7985807952966422        858.46684903859148     
   369.22204176526878        4.9167976791942545        8.8087027629850798        867.27555180157651     
   377.55347329434079        4.9160676277465116        8.8186831484806376        876.09423495005717     
   385.88490482341280        4.9153407490887480        8.8285124388217664        884.92274738887897     
   394.21633635248480        4.9146170880616467        8.8381821301167864        893.76092951899579     
   402.54776788155681        4.9138966835435518        8.8476846620195424        902.60861418101535     
   410.87919941062881        4.9131795689139093        8.8570133545046321        911.46562753551996     
   419.21063093970082        4.9124657724849934        8.8661623471741322        920.33178988269412     
   427.54206246877283        4.9117553179035598        8.8751265412509870        929.20691642394513     
   435.87349399784483        4.9110482245243894        8.8839015442859033        938.09081796823102     
   443.37178237400963        4.9104145745556655        8.8916430319115101        946.98246100014251     
   450.87007075017442        4.9097836677414080        8.8992261382160684        955.88168713835853     
   458.36835912633921        4.9091555109254887        8.9066488707935569        964.78833600915209     
   465.86664750250401        4.9085301088816635        8.9139095851712753        973.70224559432336     
   473.36493587866880        4.9079074644699769        8.9210069595902581        982.62325255391363     
   480.86322425483360        4.9072875787825438        8.9279399711774943        991.55119252509110     
   488.36151263099839        4.9066704512793677        8.9347078734845020        1000.4859003985756     
   495.85980100716318        4.9060560799148307        8.9413101753219308        1009.4272105738976     
   503.35808938332798        4.9054444612554313        8.9477466208667806        1018.3749571947644     
   510.85637775949277        4.9048355905893759        8.9540171709611407        1027.3289743657256     
   518.35466613565757        4.9042294620285078        8.9601219855775991        1036.2890963513032     
   525.85295451182242        4.9036260686031312        8.9660614073796001        1045.2551577586828     
   533.35124288798727        4.9030254023501669        8.9718359463270243        1054.2269937050098     
   540.84953126415212        4.9024274543951032        8.9774462652831861        1063.2044399702929     
   548.34781964031697        4.9018322150281701        8.9828931665577869        1072.1873331368506     
   555.84610801648182        4.9012396737751081        8.9881775793513015        1081.1755107162019     
   563.34439639264667        4.9006498194629176        8.9933005480384196        1090.1688112642403     
   570.84268476881152        4.9000626402809448        8.9982632212458746        1099.1670744854862     
   578.34097314497637        4.8994781238375840        9.0030668416950768        1108.1701413271812     
   585.83926152114122        4.8988962572129564        9.0077127367348808        1117.1778540639161     
   593.33754989730608        4.8983170270077956        9.0122023095552777        1126.1900563734714     
   600.83583827347093        4.8977404193888390        9.0165370310195208        1135.2065934044908     
   608.33412664963578        4.8971664201309437        9.0207184320850491        1144.2273118365758     
   615.83241502580063        4.8965950167757839        9.0247478290037488        1153.2520596655795     
   623.78060070453535        4.8959922260650091        9.0288504310637219        1162.2809100966433     
   632.20567752399415        4.8953565012111140        9.0330121773986516        1171.3139222740419     
   641.13625895262044        4.8946862395941224        9.0372164039402030        1180.3511386779821     
   650.60267526696430        4.8939797830621945        9.0414435710443328        1189.3925822490264     
   660.63707656016879        4.8932354185343447        9.0456709770382986        1198.4382532260647     
   671.27354193096562        4.8924513789319555        9.0498724591214756        1207.4881256851861     
   682.54819522401021        4.8916258444650529        9.0540180834854365        1216.5421437686716     
   694.49932771463750        4.8907569442979808        9.0580738270028522        1225.6002175956744     
   707.16752815470238        4.8898427586171405        9.0620012532998562        1234.6622188489744     
   720.59582062117113        4.8888813211206124        9.0657571865572653        1243.7279760355316     
   734.82981063562806        4.8878706219458987        9.0692933868481198        1252.7972694223797     
   749.91784005095235        4.8868086009828993        9.0725571264065952        1261.8698265487862     
   765.00586946627664        4.8857557743375715        9.0753497080837100        1270.9451762568699     
   780.09389888160092        4.8847120076373969        9.0776852593633937        1280.0228615162332     
   795.18192829692521        4.8836771674357085        9.0795776432303157        1289.1024391594635     
   810.26995771224949        4.8826511213874300        9.0810404364588706        1298.1834795959223     
   825.35798712757378        4.8816337383972375        9.0820869129250088        1307.2655665088473     
   840.44601654289806        4.8806248887438120        9.0827300311686852        1316.3482965400160     
   855.53404595822235        4.8796244441832810        9.0829824255896678        1325.4312789656058     
   870.62207537354664        4.8786322780346048        9.0828564007043351        1334.5141353663100     
   885.71010478887092        4.8776482652492286        9.0823639279911301        1343.5964992943011     
   900.79813420419521        4.8766722824670747        9.0815166448994304        1352.6780159392006     
   915.88616361951949        4.8757042080606219        9.0803258556680646        1361.7583417948686     
   930.97419303484378        4.8747439221686450        9.0788025336409657        1370.8371443285096     
   946.06222245016806        4.8737913169168090        9.0769566956803267        1379.9141010241899     
   962.05553363041190        4.8727900360541829        9.0746507222576014        1388.9887517464474     
   979.00844348147029        4.8717380453453112        9.0718279368297488        1398.0605796832772     
   996.97852792359220        4.8706332565562622        9.0684275414073952        1407.1290072246845     
   1014.9486123657141        4.8695386172871871        9.0646336560774223        1416.1936408807619     
   1031.1216883636239        4.8685615416416184        9.0609107959271498        1425.2545516766891     
   1048.2651489214081        4.8675347747839064        9.0566313792453474        1434.3111830559344     
   1066.4372171126595        4.8664562582586068        9.0517352450858173        1443.3629183010203     
   1085.6996093953860        4.8653238942460675        9.0461573566542874        1452.4090756576745     
   1106.1177452150762        4.8641355314936527        9.0398283991601680        1461.4489040568346     
   1126.5358810347664        4.8629588889106197        9.0331000888221702        1470.4820041456569     
   1146.9540168544565        4.8617937321777269        9.0259895272967103        1479.5079936729537     
   1167.3721526741467        4.8606398324069113        9.0185130474390895        1488.5265067203927     
   1187.7902884938369        4.8594969660126459        9.0106862430173180        1497.5371929634100     
   1208.2084243135271        4.8583649145789840        9.0025239972927693        1506.5397169607027     
   1228.6265601332173        4.8572434647232408        8.9940405104361449        1515.5337574711389     
   1249.0446959529074        4.8561324079571033        8.9852493257784722        1524.5190067969174     
   1269.4628317725976        4.8550315405458999        8.9761633548892483        1533.4951701518066     
   1289.8809675922878        4.8539406633665800        8.9667949015249082        1542.4619650533316     
   1310.2991034119780        4.8528595817649665        8.9571556844643503        1551.4191207377960     
   1330.7172392316681        4.8517881054127434        8.9472568592813086        1560.3663775970772     
   1351.1353750513583        4.8507260481646277        8.9371090390848043        1569.3034866361620     
   1371.5535108710485        4.8496732279160799        8.9267223142886998        1578.2302089504508     
