 #              _____________________  _______________________             #
 #              ___  __ \__  __ \_  / / /_  /___  ____/_  ___/             #
 #              __  / / /_  /_/ /  / / /_  __/_  __/  _____ \              #
 #              _  /_/ /_  _, _// /_/ / / /_ _  /___  ____/ /              #
 #              /_____/ /_/ |_| \____/  \__/ /_____/  /____/               #
 #                                                                         #
  
 #        time                      T            heat flux [W.L-2]   in    x              directions   cumulative flux
 #-----------------------------------------------------------------------------------------------

   0.0000000000000000        5.0792999999999999       -5.9532673649915901        5.9532673649915901     
   1.0000000000000000        5.0793006225315152       -5.9534546619163971        11.906722026907987     
   1.8999999999999999        5.0793011544026170       -5.9536102213364117        17.860332248244397     
   2.7100000000000000        5.0793016116078888       -5.9537407349444234        23.814072983188822     
   3.5200000000000000        5.0793020486711598       -5.9538628186583367        29.767935801847159     
   4.3300000000000001        5.0793024667243678       -5.9539775535044495        35.721913355351610     
   5.1400000000000006        5.0793028666836193       -5.9540860446118966        41.675999399963509     
   5.9500000000000011        5.0793032492382126       -5.9541894208225070        47.630188820786017     
   6.7600000000000016        5.0793036148403026       -5.9542888317011773        53.584477652487195     
   7.5700000000000021        5.0793039636956774       -5.9543854426657639        59.538863095152962     
   8.3800000000000026        5.0793042957559447       -5.9544804288110473        65.493343523964015     
   9.1900000000000031        5.0793046107123354       -5.9545749679028370        71.447918491866858     
   10.000000000000004        5.0793049079912835       -5.9546702329354346        77.402588724802285     
   10.810000000000004        5.0793051867540369       -5.9547673851063472        83.357356109908636     
   11.668600000000005        5.0793054600958527       -5.9548738430662329        89.312229952974874     
   12.578716000000005        5.0793057229331282       -5.9549921658359057        95.267222118810778     
   13.543438960000005        5.0793059683694430       -5.9551255396555538        101.22234765846633     
   14.508161920000004        5.0793061771909702       -5.9552685790688731        107.17761623753520     
   15.530768257600005        5.0793063526551023       -5.9554329731941609        113.13304921072937     
   16.614730975456006        5.0793064806822867       -5.9556236838090548        119.08867289453842     
   17.763731456383365        5.0793065427181263       -5.9558465817218194        125.04451947626023     
   18.912731937310724        5.0793065217346651       -5.9560922354262145        131.00061171168645     
   20.130672447093726        5.0793063940772498       -5.9563802482758339        136.95699195996227     
   21.421689387463708        5.0793061247908113       -5.9567185935668681        142.91371055352914     
   22.790167344255888        5.0793056691073986       -5.9571162322411206        148.87082678577028     
   24.158645301048068        5.0793050225499847       -5.9575542134891606        154.82838099925942     
   25.609231935247781        5.0793040970356333       -5.9580647434767045        160.78644574273613     
   27.146853767499476        5.0793028145376784       -5.9586582446020211        166.74510398733815     
   28.684475599751170        5.0793011984579026       -5.9593037679716989        172.70440775530986     
   30.314354741937969        5.0792990716979780       -5.9600452358313465        178.66445299114122     
   32.042026632655976        5.0792963060039122       -5.9608930798941415        184.62534607103535     
   33.769698523373982        5.0792929830725884       -5.9617996946508791        190.58714576568624     
   35.601030727535068        5.0792887804843669       -5.9628220677500625        196.54996783343631     
   37.432362931696154        5.0792838452281650       -5.9639005578552480        202.51386839129157     
   39.373575068106902        5.0792777299371554       -5.9650997283694371        208.47896811966100     
   41.314787204517650        5.0792706732314539       -5.9663474394959684        214.44531555915697     
   43.372472069113044        5.0792620700001567       -5.9677150827898462        220.41303064194682     
   45.430156933708439        5.0792522831369666       -5.9691182869425337        226.38214892888936     
   47.611302890179559        5.0792405117992798       -5.9706339911358741        232.35278292002525     
   49.792448846650679        5.0792272825059896       -5.9721667014496393        238.32494962147490     
   52.104463560510062        5.0792115554355810       -5.9737970613801021        244.29874668285501     
   54.416478274369446        5.0791940669877107       -5.9754204699286744        250.27416715278369     
   56.867213871060393        5.0791734899279666       -5.9771188611213066        256.25128601390497     
   59.317949467751340        5.0791508236510330       -5.9787814585627492        262.23006747246774     
   61.915729200243746        5.0791244001108788       -5.9804885173286300        268.21055598979638     
   64.513508932736158        5.0790955410043210       -5.9821267905612077        274.19268278035759     
   67.111288665228571        5.0790642179965486       -5.9836841086697659        280.17636688902735     
   69.864935181670518        5.0790282238399636       -5.9852307438182200        286.16159763284554     
   72.618581698112465        5.0789894269820719       -5.9866621186947766        292.14825975154031     
   75.537447005540926        5.0789451507209566       -5.9880380781227256        298.13629782966302     
   78.456312312969388        5.0788977329635072       -5.9892631080983634        304.12556093776141     
   81.375177620397849        5.0788471934321233       -5.9903291625675044        310.11589010032890     
   84.294042927826311        5.0787935608157238       -5.9912297555889680        316.10711985591786     
   87.212908235254773        5.0787368717231454       -5.9919598224807187        322.09907967839860     
   90.131773542683234        5.0786771697006419       -5.9925155823676386        328.09159526076621     
   93.050638850111696        5.0786145043170521       -5.9928944049863802        334.08448966575259     
   95.969504157540158        5.0785489303179583       -5.9930946837621111        340.07758434951472     
   98.888369464968619        5.0784805068485168       -5.9931157165072939        346.07070006602203     
   101.80723477239708        5.0784092971127128       -5.9929576561005407        352.06365772212257     
   104.90123199827126        5.0783307623583962       -5.9925897803911603        358.05624750251371     
   108.18086905769789        5.0782441832276426       -5.9919768296695342        364.04822433218322     
   111.65728434069011        5.0781487847651423       -5.9910800048450463        370.03930433702828     
   115.34228454066186        5.0780437352923880       -5.9898568722103578        376.02916120923862     
   119.24838475263194        5.0779281458642700       -5.9882613073728317        382.01742251661148     
   123.38885097732020        5.0778010704034857       -5.9862434860628335        388.00366600267432     
   127.77774517548977        5.0776615066036346       -5.9837499310903581        393.98741593376468     
   132.42997302554951        5.0775083970501873       -5.9807235977291064        399.96813953149376     
   137.08220087560926        5.0773504048640872       -5.9773300566357701        405.94546958812953     
   141.73442872566901        5.0771878121653593       -5.9735855355736351        411.91905512370317     
   146.38665657572875        5.0770208934432777       -5.9695064231508308        417.88856154685402     
   151.03888442578850        5.0768499146825992       -5.9651091471107218        423.85367069396472     
   155.69111227584824        5.0766751327036257       -5.9604100874700716        429.81408078143477     
   160.34334012590799        5.0764967946788504       -5.9554255181741755        435.76950629960896     
   164.99556797596773        5.0763151377945643       -5.9501715719425219        441.71967787155148     
   169.64779582602748        5.0761303890304905       -5.9446642237808147        447.66434209533230     
   174.30002367608722        5.0759427654031555       -5.9389192292276007        453.60326132455992     
   179.23138519715056        5.0757408986633363       -5.9325812212460960        459.53584254580602     
   184.45862840947768        5.0755238404013703       -5.9256059421307494        465.46144848793676     
   189.99950621454443        5.0752906056067655       -5.9179494257776337        471.37939791371440     
   195.87283668791517        5.0750401740045916       -5.9095692032873819        477.28896711700179     
   202.09856698968818        5.0747714910129620       -5.9004259475833276        483.18939306458509     
   208.69784110956755        5.0744834678515618       -5.8904856959350136        489.07987876052010     
   215.69307167663970        5.0741749795999551       -5.8797230230800270        494.95960178360014     
   222.68830224371186        5.0738636949891402       -5.8687878255564785        500.82838960915660     
   229.68353281078402        5.0735499550478842       -5.8577347725306907        506.68612438168731     
   236.67876337785617        5.0732340563346003       -5.8466197259506387        512.53274410763800     
   243.67399394492833        5.0729162522174924       -5.8354998967491110        518.36824400438707     
   250.66922451200048        5.0725967541263230       -5.8244339612667346        524.19267796565384     
   257.66445507907264        5.0722757327777179       -5.8134821368000562        530.00616010245392     
   264.65968564614479        5.0719533193789186       -5.8027062163956904        535.80886631884960     
   271.65491621321695        5.0716296068166198       -5.7921695640011617        541.60103588285074     
   278.65014678028911        5.0713046508383171       -5.7819370719080174        547.38297295475877     
   285.64537734736126        5.0709784712335857       -5.7720750830740304        553.15504803783278     
   292.64060791443342        5.0706510530223081       -5.7626512814204087        558.91769931925319     
   299.63583848150557        5.0703223476559511       -5.7537345535389015        564.67143387279214     
   306.63106904857773        5.0699922742369825       -5.7453948255052012        570.41682869829731     
   313.62629961564988        5.0696607207602833       -5.7377028785859627        576.15453157688330     
   320.62153018272204        5.0693275454010021       -5.7307301138890487        581.88526169077238     
   328.03647458381852        5.0689723521614969       -5.7242327662316583        587.60949445700408     
   335.89631564898076        5.0685932823194220       -5.7184520852827312        593.32794654228678     
   344.22774717805277        5.0681881935323583       -5.7136893426736357        599.04163588496044     
   352.55917870712477        5.0677793892584084       -5.7104121464334314        604.75204803139388     
   360.89061023619678        5.0673663844417209       -5.7087399571523534        610.46078798854626     
   369.22204176526878        5.0669486530304155       -5.7087903642455418        616.16957835279175     
   377.55347329434079        5.0665256313997880       -5.7106785641751410        621.88025691696691     
   385.88490482341280        5.0660967217858124       -5.7145168652687106        627.59477378223562     
   394.21633635248480        5.0656612957128448       -5.7204142240432034        633.31518800627885     
   402.54776788155681        5.0652186973993203       -5.7284758169292305        639.04366382320802     
   410.87919941062881        5.0647682471254019       -5.7388026503309844        644.78246647353899     
   419.21063093970082        5.0643092445470899       -5.7514912111098671        650.53395768464884     
   427.54206246877283        5.0638409719420396       -5.7666331588076254        656.30059084345646     
   435.87349399784483        5.0633626973728401       -5.7843150604650946        662.08490590392159     
   443.37178237400963        5.0629236075807045       -5.8023457636543583        667.88725166757592     
   450.87007075017442        5.0624753282741430       -5.8225495046745319        673.70980117225042     
   458.36835912633921        5.0620173085765980       -5.8449786509777351        679.55477982322816     
   465.86664750250401        5.0615489952067234       -5.8696818249420470        685.42446164817022     
   473.36493587866880        5.0610698340468359       -5.8967038564383012        691.32116550460853     
   480.86322425483360        5.0605792716389955       -5.9260857552931023        697.24725125990165     
   488.36151263099839        5.0600767566059872       -5.9578647026553160        703.20511596255699     
   495.85980100716318        5.0595617409950080       -5.9920740601481794        709.19719002270517     
   503.35808938332798        5.0590336815425410       -6.0287433956183705        715.22593341832351     
   510.85637775949277        5.0584920408594209       -6.0678985241975747        721.29383194252114     
   518.35466613565757        5.0579362885357178       -6.1095615633500442        727.40339350587124     
   525.85295451182242        5.0573659021655670       -6.1537510005441423        733.55714450641540     
   533.35124288798727        5.0567803682925918       -6.2004817721828740        739.75762627859831     
   540.84953126415212        5.0561791832770622       -6.2497653524424326        746.00739163104072     
   548.34781964031697        5.0555618540862728       -6.3016098506874192        752.30900148172816     
   555.84610801648182        5.0549278990100746       -6.3560201162073957        758.66502159793561     
   563.34439639264667        5.0542768483037204       -6.4129978490603916        765.07801944699600     
   570.84268476881152        5.0536082447605297       -6.4725417159029837        771.55056116289893     
   578.34097314497637        5.0529216442169798       -6.5346474697529242        778.08520863265187     
   585.83926152114122        5.0522166159930793       -6.5993080727327866        784.68451670538468     
   593.33754989730608        5.0514927432709369       -6.6665138209142549        791.35103052629893     
   600.83583827347093        5.0507496234145295       -6.7362524704772406        798.08728299677614     
   608.33412664963578        5.0499868682336970       -6.8085093644632124        804.89579236123939     
   615.83241502580063        5.0492040973544485       -6.8832690267767873        811.77906138801620     
   623.78060070453535        5.0483514508380338       -6.9653020734105873        818.74436346142681     
   632.20567752399415        5.0474214206669910       -7.0553590184463841        825.79972247987325     
   641.13625895262044        5.0464055763261282       -7.1542646545766573        832.95398713444990     
   650.60267526696430        5.0452944471789349       -7.2629236929387799        840.21691082738869     
   660.63707656016879        5.0440773912325456       -7.3823263794146774        847.59923720680331     
   671.27354193096562        5.0427424492611559       -7.5135539620226064        855.11279116882588     
   682.54819522401021        5.0412761833337321       -7.6577838561039959        862.77057502492983     
   694.49932771463750        5.0396634989183493       -7.8162943237170870        870.58686934864693     
   707.16752815470238        5.0378874499229109       -7.9904684518279856        878.57733780047488     
   720.59582062117113        5.0359290262899989       -8.1817971817649173        886.75913498223974     
   734.82981063562806        5.0337669241010126       -8.3918811122139676        895.15101609445367     
   749.91784005095235        5.0313773504788202       -8.6224215716473580        903.77343766610102     
   765.00586946627664        5.0288892150209401       -8.8605019374912377        912.63393960359224     
   780.09389888160092        5.0263019316114779       -9.1057994065248540        921.73973901011709     
   795.18192829692521        5.0236150924658043       -9.3579895536815023        931.09772856379857     
   810.26995771224949        5.0208284581756448       -9.6167478981368948        940.71447646193542     
   825.35798712757378        5.0179419477944949       -9.8817512756734072        950.59622773760884     
   840.44601654289806        5.0149556290606263       -10.152679023523230        960.74890676113205     
   855.53404595822235        5.0118697088426529       -10.429213986485168        971.17812074761719     
   870.62207537354664        5.0086845238778075       -10.711043356641795        981.88916410425895     
   885.71010478887092        5.0054005318567736       -10.997859361973205        992.88702346623211     
   900.79813420419521        5.0020183028927860       -11.289359820920806        1004.1763832871529     
   915.88616361951949        4.9985385113981042       -11.585248580282888        1015.7616318674358     
   930.97419303484378        4.9949619283785562       -11.885235853214310        1027.6468677206501     
   946.06222245016806        4.9912893273013283       -12.189050525664342        1039.8359182463143     
   962.05553363041190        4.9872896958541650       -12.515053905503404        1052.3509721518178     
   979.00844348147029        4.9829316891892512       -12.864686575245816        1065.2156587270636     
   996.97852792359220        4.9781811852728701       -13.239412709901124        1078.4550714369648     
   1014.9486123657141        4.9733015477736755       -13.617845852639809        1092.0729172896047     
   1031.1216883636239        4.9688066911926949       -13.961152448837954        1106.0340697384427     
   1048.2651489214081        4.9639282279683119       -14.327750479474169        1120.3618202179168     
   1066.4372171126595        4.9586314251291643       -14.718974109910453        1135.0807943278273     
   1085.6996093953860        4.9528785711333043       -15.136173074928953        1150.2169674027564     
   1106.1177452150762        4.9466290132097051       -15.580674548685666        1165.7976419514421     
   1126.5358810347664        4.9402314177819129       -16.026977127648831        1181.8246190790910     
   1146.9540168544565        4.9336895389518229       -16.474613391098003        1198.2992324701891     
   1167.3721526741467        4.9270071892927607       -16.923140444937253        1215.2223729151262     
   1187.7902884938369        4.9201882235343577       -17.372140188471114        1232.5945131035974     
   1208.2084243135271        4.9132365228498394       -17.821219475262367        1250.4157325788597     
   1228.6265601332173        4.9061559799740042       -18.270010063821417        1268.6857426426811     
   1249.0446959529074        4.8989504854299870       -18.718168284909719        1287.4039109275909     
   1269.4628317725976        4.8916239151191157       -19.165374402699545        1306.5692853302905     
   1289.8809675922878        4.8841801194438546       -19.611331699734386        1326.1806170300249     
   1310.2991034119780        4.8766229140168633       -20.055765356039462        1346.2363823860644     
   1330.7172392316681        4.8689560718904801       -20.498421213498968        1366.7348035995633     
   1351.1353750513583        4.8611833171446541       -20.939064517461212        1387.6738681170245     
   1371.5535108710485        4.8533083196106874       -21.377478713155941        1409.0513468301806     
