 #              _____________________  _______________________             #
 #              ___  __ \__  __ \_  / / /_  /___  ____/_  ___/             #
 #              __  / / /_  /_/ /  / / /_  __/_  __/  _____ \              #
 #              _  /_/ /_  _, _// /_/ / / /_ _  /___  ____/ /              #
 #              /_____/ /_/ |_| \____/  \__/ /_____/  /____/               #
 #                                                                         #
  
 #        time                      T            heat flux [W.L-2]   in    x              directions   cumulative flux
 #-----------------------------------------------------------------------------------------------

   0.0000000000000000        4.8296000000000001       -1.9843533829023114        1.9843533829023114     
   1.0000000000000000        4.8303580460419866       -2.2181187009176506        4.2024720838199618     
   1.8999999999999999        4.8310049112787556       -2.4119637593965062        6.6144358432164676     
   2.7100000000000000        4.8315604625918960       -2.5740832167734196        9.1885190599898863     
   3.5200000000000000        4.8320912541670280       -2.7248332100144714        11.913352270004358     
   4.3300000000000001        4.8325990071910043       -2.8651052600997526        14.778457530104111     
   5.1400000000000006        4.8330853084359466       -2.9957175334372845        17.774175063541396     
   5.9500000000000011        4.8335516212943173       -3.1174210743028810        20.891596137844278     
   6.7600000000000016        4.8339992958779607       -3.2309054950984701        24.122501632942747     
   7.5700000000000021        4.8344295782624824       -3.3368041724580944        27.459305805400842     
   8.3800000000000026        4.8348436189510959       -3.4356989929062216        30.895004798307063     
   9.1900000000000031        4.8352424806255403       -3.5281246878876948        34.423129486194760     
   10.000000000000004        4.8356271452456774       -3.6145727944141250        38.037702280608883     
   10.810000000000004        4.8359985213950889       -3.6954956312700191        41.733197911878904     
   11.668600000000005        4.8363782435316969       -3.7755579321661714        45.508755844045076     
   12.578716000000005        4.8367661767335894       -3.8545362555497804        49.363292099594858     
   13.543438960000005        4.8371621932859572       -3.9322148238817647        53.295506923476623     
   14.508161920000004        4.8375440981323692       -4.0043793267025176        57.299886250179142     
   15.530768257600005        4.8379342291556151       -4.0752405006820656        61.375126750861206     
   16.614730975456006        4.8383325243315003       -4.1446256167322257        65.519752367593426     
   17.763731456383365        4.8387389402387502       -4.2123776799412935        69.732130047534724     
   18.912731937310724        4.8391307992221932       -4.2749057868327673        74.007035834367485     
   20.130672447093726        4.8395311149742453       -4.3359203633610663        78.342956197728554     
   21.421689387463708        4.8399399188430028       -4.3953160168376941        82.738272214566251     
   22.790167344255888        4.8403572649140187       -4.4530081153683554        87.191280329934614     
   24.158645301048068        4.8407599293516670       -4.5060182415753536        91.697298571509961     
   25.609231935247781        4.8411716304433812       -4.5575568119285697        96.254855383438525     
   27.146853767499476        4.8415924813518485       -4.6075903178094331        100.86244570124796     
   28.684475599751170        4.8419990518302036       -4.6535751832121992        105.51602088446016     
   30.314354741937969        4.8424152988497040       -4.6983354386836913        110.21435632314385     
   32.042026632655976        4.8428413647142152       -4.7418854181812371        114.95624174132509     
   33.769698523373982        4.8432534838049754       -4.7820414848663404        119.73828322619143     
   35.601030727535068        4.8436759110330145       -4.8213080965324053        124.55959132272383     
   37.432362931696154        4.8440850119237240       -4.8577219007421801        129.41731322346601     
   39.373575068106902        4.8445048120527181       -4.8935742015929895        134.31088742505901     
   41.314787204517650        4.8449117446744756       -4.9270806152905591        139.23796804034956     
   43.372472069113044        4.8453296395314123       -4.9603778667971037        144.19834590714666     
   45.430156933708439        4.8457349476783955       -4.9918234181775167        149.19016932532418     
   47.611302890179559        4.8461513127385034       -5.0234641588062008        154.21363348413038     
   49.792448846650679        4.8465551677884831       -5.0537641380797478        159.26739762221013     
   52.104463560510062        4.8469699485720650       -5.0847556455993459        164.35215326780948     
   54.416478274369446        4.8473720500490431       -5.1149723035756693        169.46712557138517     
   56.867213871060393        4.8477846360584982       -5.1465229339371827        174.61364850532235     
   59.317949467751340        4.8481840621696417       -5.1779667631017139        179.79161526842407     
   61.915729200243746        4.8485930991339767       -5.2116025726726578        185.00321784109673     
   64.513508932736158        4.8489880866648969       -5.2459571189784411        190.24917496007518     
   67.111288665228571        4.8493692136267272       -5.2814353935682981        195.53061035364348     
   69.864935181670518        4.8497577238790370       -5.3207795938965985        200.85138994754007     
   72.618581698112465        4.8501307154837443       -5.3623309200905389        206.21372086763060     
   75.537447005540926        4.8505084627266077       -5.4094086648804955        211.62312953251109     
   78.456312312969388        4.8508682644131724       -5.4600682943532473        217.08319782686434     
   81.375177620397849        4.8512096731256555       -5.5148519688526099        222.59804979571695     
   84.294042927826311        4.8515321247354457       -5.5742942508610716        228.17234404657802     
   87.212908235254773        4.8518349468755178       -5.6389202836072334        233.81126433018525     
   90.131773542683234        4.8521173671828111       -5.7092436871618579        239.52050801734711     
   93.050638850111696        4.8523785214204338       -5.7857642920707431        245.30627230941786     
   95.969504157540158        4.8526174615491646       -5.8689658079833391        251.17523811740119     
   98.888369464968619        4.8528331637864603       -5.9593135064258433        257.13455162382706     
   101.80723477239708        4.8530245357527955       -6.0572524259981666        263.19180404982524     
   104.90123199827126        4.8531986786567858       -6.1700973517584314        269.36190140158368     
   108.18086905769789        4.8533492928818056       -6.3004150852632295        275.66231648684692     
   111.65728434069011        4.8534686401434408       -6.4511851396034752        282.11350162645039     
   115.34228454066186        4.8535472513605402       -6.6258478327052881        288.73934945915568     
   119.24838475263194        4.8535735857809081       -6.8283515689218346        295.56770102807752     
   123.38885097732020        4.8535336374287210       -7.0631968367861120        302.63089786486364     
   127.77774517548977        4.8534104862312706       -7.3354737861604846        309.96637165102413     
   132.42997302554951        4.8531838014169724       -7.6508867312954747        317.61725838231962     
   137.08220087560926        4.8528557332128859       -7.9934779749305491        325.61073635725018     
   141.73442872566901        4.8524212290353468       -8.3634318936144290        333.97416825086458     
   146.38665657572875        4.8518754635230668       -8.7607493275556401        342.73491757842021     
   151.03888442578850        4.8512138791409090       -9.1852585320036848        351.92017611042388     
   155.69111227584824        4.8504322201595720       -9.6366277071203790        361.55680381754428     
   160.34334012590799        4.8495265601146684       -10.114378759872842        371.67118257741714     
   164.99556797596773        4.8484933229281610       -10.617901987952857        382.28908456536999     
   169.64779582602748        4.8473292979440092       -11.146471395852034        393.43555596122201     
   174.30002367608722        4.8460316265372692       -11.699268912039033        405.13482487326104     
   179.23138519715056        4.8445030482282938       -12.311359970335090        417.44618484359614     
   184.45862840947768        4.8427079367299077       -12.988126099652128        430.43431094324825     
   189.99950621454443        4.8406060332525493       -13.735128801026610        444.16943974427488     
   195.87283668791517        4.8381520571377559       -14.558048251353140        458.72748799562800     
   202.09856698968818        4.8352953327697534       -15.462609747179258        474.19009774280727     
   208.69784110956755        4.8319794451272173       -16.454497621865702        490.64459536467297     
   215.69307167663970        4.8281420459240127       -17.539219168910389        508.18381453358336     
   222.68830224371186        4.8239839897742662       -18.653588126242589        526.83740265982590     
   229.68353281078402        4.8195084359978271       -19.794009737239008        546.63141239706488     
   236.67876337785617        4.8147195901269670       -20.957018061993558        567.58843045905849     
   243.67399394492833        4.8096225790933822       -22.139290955621487        589.72772141467999     
   250.66922451200048        4.8042233343954992       -23.337660277197241        613.06538169187718     
   257.66445507907264        4.7985284833897897       -24.549118552071143        637.61450024394833     
   264.65968564614479        4.7925452485810629       -25.770822900975780        663.38532314492409     
   271.65491621321695        4.7862813546730978       -27.000096774573279        690.38541991949739     
   278.65014678028911        4.7797449431018553       -28.234429869801922        718.61984978929934     
   285.64537734736126        4.7729444937585743       -29.471476521207254        748.09132631050659     
   292.64060791443342        4.7658887535947123       -30.709052824313147        778.80037913481976     
   299.63583848150557        4.7585866717769782       -31.945132733628832        810.74551186844860     
   306.63106904857773        4.7510473410307350       -33.177843368251445        843.92335523669999     
   313.62629961564988        4.7432799447797853       -34.405459743960314        878.32881498066035     
   320.62153018272204        4.7352934784345395       -35.626435063546595        913.95525004420699     
   328.03647458381852        4.7265928932653729       -36.911461470209524        950.86671151441647     
   335.89631564898076        4.7171193112901451       -38.261418422820007        989.12812993723651     
   344.22774717805277        4.7068110119408306       -39.676714914318637        1028.8048448515551     
   352.55917870712477        4.6962511839258836       -41.074694056832676        1069.8795389083878     
   360.89061023619678        4.6854546280243481       -42.453871209460956        1112.3334101178486     
   369.22204176526878        4.6744357999869992       -43.812970627988122        1156.1463807458367     
   377.55347329434079        4.6632087618057572       -45.150918072785856        1201.2972988186225     
   385.88490482341280        4.6517871343524089       -46.466837224737112        1247.7641360433597     
   394.21633635248480        4.6401840494979121       -47.760049347381994        1295.5241853907416     
   402.54776788155681        4.6284121047132061       -49.030069400261304        1344.5542547910029     
   410.87919941062881        4.6164833251769721       -50.276594861225092        1394.8308496522279     
   419.21063093970082        4.6044091380712313       -51.499486604489448        1446.3303362567174     
   427.54206246877283        4.5922003616150437       -52.698744007475746        1499.0290802641932     
   435.87349399784483        4.5798672086130292       -53.874476253393361        1552.9035565175866     
   443.37178237400963        4.5686736894723241       -54.913709664834478        1607.8172661824210     
   450.87007075017442        4.5573931807069066       -55.934192069495786        1663.7514582519168     
   458.36835912633921        4.5460320298004868       -56.936117064548647        1720.6875753164654     
   465.86664750250401        4.5345962639923201       -57.919689723113557        1778.6072650395790     
   473.36493587866880        4.5230916155122216       -58.885119242589219        1837.4923842821684     
   480.86322425483360        4.5115235450437448       -59.832615342237119        1897.3249996244056     
   488.36151263099839        4.4998972619127393       -60.762387984182986        1958.0873876085886     
   495.85980100716318        4.4882177402948873       -61.674649348578818        2019.7620369571675     
   503.35808938332798        4.4764897314981313       -62.569616862848285        2082.3316538200156     
   510.85637775949277        4.4647177728913023       -63.447516318451633        2145.7791701384672     
   518.35466613565757        4.4529061942963439       -64.308584451638836        2210.0877545901062     
   525.85295451182242        4.4410591226991176       -65.153070675732522        2275.2408252658388     
   533.35124288798727        4.4291804860459330       -65.981237877893079        2341.2220631437317     
   540.84953126415212        4.4172740167463616       -66.793362333703655        2408.0154254774352     
   548.34781964031697        4.4053432553418190       -67.589732868272094        2475.6051583457074     
   555.84610801648182        4.3933915546477058       -68.370649424962409        2543.9758077706697     
   563.34439639264667        4.3814220845906586       -69.136421150420674        2613.1122289210903     
   570.84268476881152        4.3694378388332460       -69.887362613493792        2682.9995915345839     
   578.34097314497637        4.3574416434414021       -70.623789220466051        2753.6233807550498     
   585.83926152114122        4.3454361676306483       -71.346012217966816        2824.9693929730165     
   593.33754989730608        4.3334239360071072       -72.054334231036322        2897.0237272040526     
   600.83583827347093        4.3214073415151830       -72.749045859529502        2969.7727730635820     
   608.33412664963578        4.3093886581665206       -73.430423726574304        3043.2031967901562     
   615.83241502580063        4.2973699545036057       -74.098687457983857        3117.3018842481401     
   623.78060070453535        4.2846326681466218       -74.792691543478810        3192.0945757916188     
   632.20567752399415        4.2711367474282742       -75.512555741845006        3267.6071315334639     
   641.13625895262044        4.2568404716936294       -76.258276162581993        3343.8654076960461     
   650.60267526696430        4.2417004807444147       -77.029711747446285        3420.8951194434921     
   660.63707656016879        4.2256718171358285       -77.826575794616758        3498.7216952381091     
   671.27354193096562        4.2087079749168304       -78.648436453874211        3577.3701316919833     
   682.54819522401021        4.1907609441886304       -79.494729617484978        3656.8648613094683     
   694.49932771463750        4.1717812381667381       -80.364785271512574        3737.2296465809809     
   707.16752815470238        4.1517178902106693       -81.257864520818771        3818.4875111017996     
   720.59582062117113        4.1305184401825024       -82.173174544560155        3900.6606856463595     
   734.82981063562806        4.1081289532132583       -83.109841810048877        3983.7705274564082     
   749.91784005095235        4.0844959381278034       -84.066197103997325        4067.8367245604054     
   765.00586946627664        4.0609674754763816       -84.987768022526652        4152.8244925829322     
   780.09389888160092        4.0375492271438409       -85.875446863815256        4238.6999394467475     
   795.18192829692521        4.0142470357591957       -86.729807920526625        4325.4297473672741     
   810.26995771224949        3.9910668968996492       -87.551311767278079        4412.9810591345522     
   825.35798712757378        3.9680147724086305       -88.340477281395181        4501.3215364159478     
   840.44601654289806        3.9450963563324772       -89.097976259158273        4590.4195126751065     
   855.53404595822235        3.9223169747815350       -89.824565076349842        4680.2440777514566     
   870.62207537354664        3.8996816186059755       -90.520984022314920        4770.7650617737718     
   885.71010478887092        3.8771950135037354       -91.187914907400781        4861.9529766811729     
   900.79813420419521        3.8548616577282884       -91.825996107744132        4953.7789727889167     
   915.88616361951949        3.8326858070585179       -92.435864182606025        5046.2148369715223     
   930.97419303484378        3.8106714180982113       -93.018196239932635        5139.2330332114552     
   946.06222245016806        3.7888190529097172       -93.574331788860050        5232.8073650003153     
   962.05553363041190        3.7658439860060851       -94.134819187038033        5326.9421841873536     
   979.00844348147029        3.7417056647080136       -94.697658625759104        5421.6398428131124     
   996.97852792359220        3.7163684889298296       -95.260123235498853        5516.8999660486115     
   1014.9486123657141        3.6912789054071160       -95.790865661067286        5612.6908317096786     
   1031.1216883636239        3.6688961998172531       -96.244440780237611        5708.9352724899163     
   1048.2651489214081        3.6453972950015405       -96.698814308476102        5805.6340867983927     
   1066.4372171126595        3.6207432444899350       -97.152476966306907        5902.7865637646992     
   1085.6996093953860        3.5948944021219891       -97.604505697321969        6000.3910694620208     
   1106.1177452150762        3.5678134741805900       -98.055165846617513        6098.4462353086383     
   1126.5358810347664        3.5410374519763121       -98.481880401320097        6196.9281157099585     
   1146.9540168544565        3.5145566688901528       -98.887538834385495        6295.8156545443444     
   1167.3721526741467        3.4883622477255263       -99.273788456373254        6395.0894430007174     
   1187.7902884938369        3.4624475309534279       -99.640953882318470        6494.7303968830356     
   1208.2084243135271        3.4368080648981625       -99.988834705192943        6594.7192315882285     
   1228.6265601332173        3.4114410878395542       -100.31718207735719        6695.0364136655853     
   1249.0446959529074        3.3863447046201394       -100.62603438646248        6795.6624480520477     
   1269.4628317725976        3.3615171312129206       -100.91583395852689        6896.5782820105742     
   1289.8809675922878        3.3369561199226170       -101.18742333909559        6997.7657053496696     
   1310.2991034119780        3.3126586082610343       -101.44196551780018        7099.2076708674695     
   1330.7172392316681        3.2886205748799489       -101.68083224596464        7200.8885031134341     
   1351.1353750513583        3.2648370508493874       -101.90549513397217        7302.7939982474063     
   1371.5535108710485        3.2413021975467462       -102.11745821710548        7404.9114564645115     
