 #              _____________________  _______________________             #
 #              ___  __ \__  __ \_  / / /_  /___  ____/_  ___/             #
 #              __  / / /_  /_/ /  / / /_  __/_  __/  _____ \              #
 #              _  /_/ /_  _, _// /_/ / / /_ _  /___  ____/ /              #
 #              /_____/ /_/ |_| \____/  \__/ /_____/  /____/               #
 #                                                                         #
  
 #        time                      T            heat flux [W.L-2]   in    x              directions   cumulative flux
 #-----------------------------------------------------------------------------------------------

   0.0000000000000000        4.9545000000000003        6.9453268142139937        6.9453268142139937     
   1.0000000000000000        4.9541207102410629        7.0622924841503680        14.007619298364361     
   1.8999999999999999        4.9537970501061457        7.1592827446799312        21.166902043044292     
   2.7100000000000000        4.9535190790819188        7.2403979016913151        28.407299944735605     
   3.5200000000000000        4.9532534965027377        7.3158227146033434        35.723122659338948     
   4.3300000000000001        4.9529994408690108        7.3860026082471295        43.109125267586080     
   5.1400000000000006        4.9527561177723003        7.4513461189152448        50.560471386501327     
   5.9500000000000011        4.9525227943478534        7.5122280231646661        58.072699409665994     
   6.7600000000000016        4.9522987941971559        7.5689921991126070        65.641691608778601     
   7.5700000000000021        4.9520834927404085        7.6219542431105403        73.263645851889137     
   8.3800000000000026        4.9518763129621846        7.6714038627558647        80.935049714645004     
   9.1900000000000031        4.9516767215167192        7.7176070653839508        88.652656780028948     
   10.000000000000004        4.9514842251621287        7.7608081595617566        96.413464939590710     
   10.810000000000004        4.9512983672212778        7.8012316658744405        104.21469660546515     
   11.668600000000005        4.9511083160036158        7.8412040408319452        112.05590064629709     
   12.578716000000005        4.9509141320401113        7.8806076771147779        119.93650832341187     
   13.543438960000005        4.9507158695753786        7.9193274922519246        127.85583581566380     
   14.508161920000004        4.9505246329460864        7.9552584486751323        135.81109426433892     
   15.530768257600005        4.9503292238760777        7.9904897141590574        143.80158397849797     
   16.614730975456006        4.9501296536568029        8.0249234079763738        151.82650738647436     
   17.763731456383365        4.9499259178689101        8.0584673096486874        159.88497469612304     
   18.912731937310724        4.9497293657679844        8.0893372194858060        167.97431191560884     
   20.130672447093726        4.9495284222345193        8.1193525771405035        176.09366449274933     
   21.421689387463708        4.9493230221677953        8.1484407012915732        184.24210519404090     
   22.790167344255888        4.9491130751072498        8.1765360749886451        192.41864126902954     
   24.158645301048068        4.9489102214523157        8.2021812598561894        200.62082252888572     
   25.609231935247781        4.9487024413389715        8.2269115880476171        208.84773411693334     
   27.146853767499476        4.9484895669196911        8.2506789028909733        217.09841301982431     
   28.684475599751170        4.9482833805028195        8.2722694370428442        225.37068245686714     
   30.314354741937969        4.9480716148408979        8.2929880005425431        233.66367045740969     
   32.042026632655976        4.9478540135483353        8.3128000654084708        241.97647052281818     
   33.769698523373982        4.9476426070474480        8.3307093742542229        250.30717989707239     
   35.601030727535068        4.9474247664201298        8.3478079012410618        258.65498779831347     
   37.432362931696154        4.9472125458185774        8.3632390024895162        267.01822680080301     
   39.373575068106902        4.9469932441369737        8.3779451605783564        275.39617196138136     
   41.314787204517650        4.9467790069261071        8.3911924867808985        283.78736444816224     
   43.372472069113044        4.9465569882257325        8.4037916555872769        292.19115610374951     
   45.430156933708439        4.9463394946100667        8.4151169282008507        300.60627303195037     
   47.611302890179559        4.9461134603497161        8.4258632341569548        309.03213626610733     
   49.792448846650679        4.9458914253527881        8.4355002237693153        317.46763648987667     
   52.104463560510062        4.9456600267658928        8.4446216662742017        325.91225815615087     
   54.416478274369446        4.9454321134674597        8.4527812609716158        334.36503941712249     
   56.867213871060393        4.9451939455204759        8.4604848935394976        342.82552431066199     
   59.317949467751340        4.9449587602159379        8.4673599954613756        351.29288430612337     
   61.915729200243746        4.9447123578557699        8.4738367208749921        359.76672102699837     
   64.513508932736158        4.9444684476515466        8.4796065755579892        368.24632760255633     
   67.111288665228571        4.9442266759139848        8.4847599897811730        376.73108759233753     
   69.864935181670518        4.9439724321303062        8.4896231707333882        385.22071076307094     
   72.618581698112465        4.9437199001785137        8.4939680065904994        393.71467876966142     
   75.537447005540926        4.9434538058710338        8.4980745733980942        402.21275334305949     
   78.456312312969388        4.9431890111738648        8.5017546856543902        410.71450802871391     
   81.375177620397849        4.9429252642360408        8.5050713982471144        419.21957942696105     
   84.294042927826311        4.9426623465363502        8.5080796858060221        427.72765911276707     
   87.212908235254773        4.9424000687223790        8.5108275618556828        436.23848667462278     
   90.131773542683234        4.9421382670065146        8.5133570188483283        444.75184369347113     
   93.050638850111696        4.9418768000340272        8.5157048225063345        453.26754851597747     
   95.969504157540158        4.9416155461534936        8.5179031868196837        461.78545170279716     
   98.888369464968619        4.9413544010319654        8.5199803505389387        470.30543205333612     
   101.80723477239708        4.9410932755668453        8.5219610718284731        478.82739312516458     
   104.72610007982554        4.9408320940541444        8.5238670544766606        487.35126017964126     
   107.64496538725400        4.9405707925791313        8.5257173165010069        495.87697749614227     
   110.56383069468247        4.9403093176004074        8.5275285100231368        504.40450600616543     
   113.48269600211093        4.9400476247027250        8.5293151996830829        512.93382120584852     
   116.40156130953939        4.9397856774973272        8.5310901056350446        521.46491131148355     
   119.32042661696785        4.9395234466515303        8.5328643161423763        529.99777562762597     
   122.23929192439631        4.9392609090317148        8.5346474739927185        538.53242310161863     
   125.15815723182477        4.9389980469459998        8.5364479402870348        547.06887104190571     
   128.07702253925325        4.9387348474746382        8.5382729386081451        555.60714398051391     
   130.99588784668171        4.9384713018776782        8.5401286821528313        564.14727266266675     
   133.91475315411017        4.9382074050707878        8.5420204860046365        572.68929314867137     
   136.83361846153863        4.9379431551612294        8.5439528664440516        581.23324601511547     
   139.75248376896710        4.9376785530424563        8.5459296445829658        589.77917565969847     
   142.84648099484127        4.9373976831197437        8.5480786342266040        598.32725429392508     
   146.12611805426789        4.9370995290351365        8.5504203658699502        606.87767465979505     
   149.60253333726013        4.9367830134749680        8.5529775750381489        615.43065223483325     
   153.28753353723189        4.9364469956232897        8.5557753098706826        623.98642754470393     
   157.19363374920195        4.9360902687442509        8.5588410157592438        632.54526856046323     
   161.33409997389023        4.9357115579397295        8.5622045898230148        641.10747315028630     
   165.72299417205980        4.9353095181887161        8.5658983787265122        649.67337152901280     
   170.11188837022937        4.9349069204419296        8.5697199028844580        658.24309143189726     
   174.50078256839893        4.9345038149065408        8.5736675537300044        666.81675898562730     
   178.88967676656850        4.9341002530347966        8.5777389557735209        675.39449794140080     
   183.27857096473807        4.9336962869942491        8.5819310981309496        683.97642903953169     
   187.66746516290763        4.9332919692280885        8.5862404473728589        692.56266948690450     
   192.05635936107720        4.9328873520915035        8.5906630444785588        701.15333253138306     
   196.44525355924677        4.9324824874418844        8.5951945930091505        709.74852712439224     
   201.09748140930651        4.9320531141200972        8.6001149797372562        718.34864210412945     
   205.74970925936626        4.9316235839069451        8.6051466043502209        726.95378870847969     
   210.40193710942600        4.9311939555273208        8.6102835658107750        735.56407227429042     
   215.05416495948575        4.9307642862624332        8.6155198364649852        744.17959211075538     
   219.24117002453951        4.9303775914163639        8.6203084711929705        752.79990058194835     
   223.67939539349649        4.9299677505701744        8.6254644792038171        761.42536506115221     
   228.38391428459090        4.9295334362020116        8.6310134514963934        770.05637851264862     
   233.37070430915097        4.9290732567493780        8.6369817848314678        778.69336029748013     
   238.65670173518464        4.9285857555683208        8.6433964774998930        787.33675677498002     
   244.25985900678035        4.9280694104539338        8.6502848854032433        795.98704166038328     
   249.86301627837605        4.9275535485512751        8.6572519982738960        804.64429365865715     
   255.46617354997176        4.9270382434062574        8.6642879596595179        813.30858161831668     
   261.06933082156746        4.9265235648665637        8.6713832035610299        821.97996482187773     
   266.67248809316317        4.9260095791616925        8.6785284750789859        830.65849329695675     
   272.27564536475887        4.9254963489960701        8.6857148457156725        839.34420814267241     
   277.87880263635458        4.9249839336519310        8.6929337241434901        848.03714186681589     
   283.48195990795028        4.9244723890992530        8.7001768631458116        856.73731872996166     
   289.08511717954599        4.9239617681105212        8.7074363633263019        865.44475509328799     
   294.68827445114169        4.9234521203785189        8.7147046741047340        874.15945976739272     
   300.29143172273740        4.9229434926356523        8.7219745924334582        882.88143435982613     
   305.89458899433311        4.9224359287736190        8.7292392596200745        891.61067361944617     
   311.49774626592881        4.9219294699624596        8.7364921565723925        900.34716577601853     
   317.10090353752452        4.9214241547682036        8.7437270977529629        909.09089287377151     
   322.70406080912022        4.9209200192684976        8.7509382240821285        917.84183109785363     
   328.30721808071593        4.9204170971657488        8.7581199949930060        926.59995109284660     
   333.91037535231163        4.9199154198973778        8.7652671798244839        935.36521827267109     
   339.51353262390734        4.9194150167429349        8.7723748486975168        944.13759312136858     
   345.11668989550304        4.9189159149278607        8.7794383630074098        952.91703148437603     
   350.71984716709875        4.9184181397237285        8.7864533656541539        961.70348485003024     
   356.32300443869445        4.9179217145449146        8.7934157710952725        970.49690062112552     
   361.92616171029016        4.9174266610416213        8.8003217553076016        979.29722237643307     
   367.52931898188587        4.9169329991892550        8.8071677457300659        988.10439012216318     
   373.13247625348157        4.9164407473741560        8.8139504112475944        996.91834053341074     
   378.73563352507728        4.9159499224757468        8.8206666522580086        1005.7390071856687     
   384.33879079667298        4.9154605397454629        8.8273135491564414        1014.5663207348251     
   390.27813750456443        4.9149434314180152        8.8342782248156286        1023.4005989596408     
   396.57384501492936        4.9143971544363163        8.8415663406879101        1032.2421653003287     
   402.86955252529430        4.9138527510091121        8.8487568283903304        1041.0909221287191     
   409.16526003565923        4.9133102353141487        8.8558468358172178        1049.9467689645362     
   415.46096754602416        4.9127696198505539        8.8628337834352386        1058.8096027479714     
   421.75667505638910        4.9122309155414543        8.8697153494073682        1067.6793180973789     
   425.78592786302266        4.9118869302203763        8.8740758254686725        1076.5533939228476     
   430.05693583805424        4.9115231910558901        8.8786481629067762        1085.4320420857543     
   433.90084301558267        4.9111965446833183        8.8827225143937643        1094.3147646001480     
   437.97538462376281        4.9108511093057592        8.8869950949110255        1103.2017596950591     
   442.29439872843375        4.9104858597338872        8.8914715766383061        1112.0932312716973     
   446.87255367938491        4.9100997219465423        8.8961571631117984        1120.9893884348091     
   451.72539792739315        4.9096915716701623        8.9010564650797352        1129.8904448998890     
   456.86941283028187        4.9092602330364388        8.9061733598843595        1138.7966182597734     
   462.32206862734392        4.9088044773370587        8.9115108330882862        1147.7081290928616     
   468.10188377222971        4.9083230218959697        8.9170708011215076        1156.6251998939831     
   474.22848782580866        4.9078145290812536        8.9228539138295027        1165.5480538078127     
   480.72268812260234        4.9072776054801892        8.9288593359381299        1174.4769131437508     
   487.60654043720365        4.9067108012625100        8.9350845066657776        1183.4119976504167     
   494.90342389068104        4.9061126097581571        8.9415248769602478        1192.3535225273770     
   502.63812035136709        4.9054814672768368        8.9481736241761283        1201.3016961515532     
   510.83689859969428        4.9048157531975551        8.9550213443985296        1210.2567174959518     
   519.52760354292116        4.9041137903567504        8.9620557231037221        1219.2187732190555     
   528.73975078274157        4.9033738457637961        8.9692611853598336        1228.1880344044152     
   538.50462685695118        4.9025941316723216        8.9766185273940220        1237.1646529318093     
   548.85539549561338        4.9017728067435993        8.9841047414408912        1246.1487576732502     
   559.20616413427558        4.9009566244937064        8.9912809632977719        1255.1400386365481     
   569.55693277293778        4.9001455532629565        8.9981503211040792        1264.1381889576521     
   579.90770141159999        4.8993395593919784        9.0047162641988940        1273.1429052218509     
   590.25847005026219        4.8985386074686508        9.0109825187045072        1282.1538877405553     
   600.60923868892439        4.8977426605511756        9.0169530473844599        1291.1708407879398     
   610.96000732758660        4.8969516803695399        9.0226320134230953        1300.1934728013630     
   621.31077596624880        4.8961656275074201        9.0280237477958174        1309.2214965491587     
   631.66154460491100        4.8953844615663673        9.0331327199154625        1318.2546292690743     
   642.01231324357320        4.8946081413139844        9.0379635112725865        1327.2925927803469     
   652.36308188223541        4.8938366248175660        9.0425207918106629        1336.3351135721575     
   662.71385052089761        4.8930698695646271        9.0468092987769282        1345.3819228709344     
   673.06461915955981        4.8923078325715519        9.0508338178400880        1354.4327566887746     
   683.41538779822201        4.8915504704814570        9.0545991662679324        1363.4873558550426     
   693.76615643688422        4.8907977396523510        9.0581101779619626        1372.5454660330045     
   704.11692507554642        4.8900495962364587        9.0613716901900876        1381.6068377231945     
   714.46769371420862        4.8893059962515739        9.0643885318560642        1390.6712262550507     
   724.81846235287082        4.8885668968222884        9.0671652741601019        1399.7383915292107     
   735.79027710985281        4.8877884547169552        9.0698447850670636        1408.8082363142778     
   747.42040075225373        4.8869688637305284        9.0723956484480386        1417.8806319627258     
   759.05052439465464        4.8861547694176881        9.0746634666866761        1426.9552954294124     
   770.68064803705556        4.8853461097326880        9.0766548093869162        1436.0319502387993     
   782.31077167945648        4.8845428229193883        9.0783761565114407        1445.1103263953107     
   793.94089532185740        4.8837448494075186        9.0798335864476201        1454.1901599817584     
   806.26882638280233        4.8829048931413830        9.0810897162179227        1463.2712496979764     
   819.33643330740392        4.8820210780360416        9.0821055093582999        1472.3533552073347     
   833.18809664748164        4.8810914765992290        9.0828381275586523        1481.4361933348935     
   847.03975998755936        4.8801690199558676        9.0832361572340989        1490.5194294921275     
   860.89142332763709        4.8792536090214789        9.0833092965134732        1499.6027387886411     
   874.74308666771481        4.8783451458650839        9.0830670042900259        1508.6858057929312     
   888.59475000779253        4.8774435337497968        9.0825184990690211        1517.7683242920002     
   902.44641334787025        4.8765486771656956        9.0816727590004280        1526.8499970510006     
   916.29807668794797        4.8756604818559168        9.0805385229230176        1535.9305355739236     
   930.14974002802569        4.8747788548368032        9.0791242922374167        1545.0096598661610     
   944.00140336810341        4.8739037044128173        9.0774383334860982        1554.0870981996470     
   957.85306670818113        4.8730349401868445        9.0754886814996798        1563.1625868811468     
   971.70473004825885        4.8721724730664633        9.0732831430123362        1572.2358700241591     
