 #              _____________________  _______________________             #
 #              ___  __ \__  __ \_  / / /_  /___  ____/_  ___/             #
 #              __  / / /_  /_/ /  / / /_  __/_  __/  _____ \              #
 #              _  /_/ /_  _, _// /_/ / / /_ _  /___  ____/ /              #
 #              /_____/ /_/ |_| \____/  \__/ /_____/  /____/               #
 #                                                                         #
  
 #        time                      T            heat flux [W.L-2]   in    x              directions   cumulative flux
 #-----------------------------------------------------------------------------------------------

   0.0000000000000000        4.8296000000000001       -1.9843366914511587        1.9843366914511587     
   1.0000000000000000        4.8303580005093689       -2.2180802921885787        4.2024169836397371     
   1.8999999999999999        4.8310048290962415       -2.4119074323117924        6.6143244159515291     
   2.7100000000000000        4.8315603504798714       -2.5740120417879870        9.1883364577395170     
   3.5200000000000000        4.8320911147866150       -2.7247484325906495        11.913084890330166     
   4.3300000000000001        4.8325988428581752       -2.8650080479384519        14.778092938268617     
   5.1400000000000006        4.8330851211646779       -2.9956089740912626        17.773701912359879     
   5.9500000000000011        4.8335514128344812       -3.1173021749174765        20.891004087277356     
   6.7600000000000016        4.8339990677486275       -3.2307771837474428        24.121781271024798     
   7.5700000000000021        4.8344293317811600       -3.3366673006274050        27.458448571652202     
   8.3800000000000026        4.8348433552594194       -3.4355543387977749        30.894002910449977     
   9.1900000000000031        4.8352422007118241       -3.5279729602624639        34.421975870712444     
   10.000000000000004        4.8356268499647168       -3.6144146367703125        38.036390507482757     
   10.810000000000004        4.8359982110604927       -3.6953314509783901        41.731721958461151     
   11.668600000000005        4.8363779180010757       -3.7753879820606278        45.507109940521779     
   12.578716000000005        4.8367658358237255       -3.8543608028745875        49.361470743396367     
   13.543438960000005        4.8371618371705498       -3.9320343092921166        53.293505052688481     
   14.508161920000004        4.8375437269899404       -4.0041941153287670        57.297699168017246     
   15.530768257600005        4.8379338426292122       -4.0750508316202971        61.372749999637541     
   16.614730975456006        4.8383321220045534       -4.1444317262348038        65.517181725872348     
   17.763731456383365        4.8387385219438936       -4.2121799136377192        69.729361639510074     
   18.912731937310724        4.8391303650353210       -4.2747044345960319        74.004066074106106     
   20.130672447093726        4.8395306642928988       -4.3357155947160750        78.339781668822184     
   21.421689387463708        4.8399394510000278       -4.3951079846031229        82.734889653425313     
   22.790167344255888        4.8403567793977613       -4.4527970179971117        87.187686671422426     
   24.158645301048068        4.8407594262047811       -4.5058042823940285        91.693490953816450     
   25.609231935247781        4.8411711088445193       -4.5573400576434357        96.250831011459880     
   27.146853767499476        4.8415919405863885       -4.6073708415022772        100.85820185296215     
   28.684475599751170        4.8419984919739010       -4.6533531215451536        105.51155497450731     
   30.314354741937969        4.8424147189817965       -4.6981107691950390        110.20966574370235     
   32.042026632655976        4.8428407640040820       -4.7416580941529212        114.95132383785527     
   33.769698523373982        4.8432528624157118       -4.7818115712004428        119.73313540905571     
   35.601030727535068        4.8436752681254767       -4.8210754611365685        124.55421087019228     
   37.432362931696154        4.8440843477431965       -4.8574865413504105        129.41169741154269     
   39.373575068106902        4.8445041258078350       -4.8933358841773220        134.30503329572002     
   41.314787204517650        4.8449110367226895       -4.9268392416745099        139.23187253739454     
   43.372472069113044        4.8453289091975265       -4.9601330605234883        144.19200559791801     
   45.430156933708439        4.8457341954784958       -4.9915749355197212        149.18358053343772     
   47.611302890179559        4.8461505382060217       -5.0232114090185451        154.20679194245628     
   49.792448846650679        4.8465543716733839       -5.0535066569645215        159.26029859942079     
   52.104463560510062        4.8469691307496436       -5.0844925177955265        164.34479111721632     
   54.416478274369446        4.8473712116228480       -5.1147027410322483        169.45949385824858     
   56.867213871060393        4.8477837774411281       -5.1462455424620916        174.60573940071066     
   59.317949467751340        4.8481831850008472       -5.1776802983632351        179.78341969907390     
   61.915729200243746        4.8485922046463736       -5.2113049617181790        184.99472466079209     
   64.513508932736158        4.8489871774001161       -5.2456465699842267        190.24037123077630     
   67.111288665228571        4.8493682923710937       -5.2811098111837884        195.52148104196010     
   69.864935181670518        4.8497567936354624       -5.3204356211560802        200.84191666311619     
   72.618581698112465        4.8501297803161485       -5.3619656530598263        206.20388231617602     
   75.537447005540926        4.8505075275451404       -5.4090175059447247        211.61289982212074     
   78.456312312969388        4.8508673349900198       -5.4596475130901290        217.07254733521086     
   81.375177620397849        4.8512087558635102       -5.5143975395581029        222.58694487476896     
   84.294042927826311        4.8515312267045907       -5.5738018250608485        228.16074669982982     
   87.212908235254773        4.8518340758671146       -5.6383851259521691        233.79913182578198     
   90.131773542683234        4.8521165317901236       -5.7086605640975092        239.50779238987948     
   93.050638850111696        4.8523777311609244       -5.7851273059988522        245.29291969587834     
   95.969504157540158        4.8526167270403340       -5.8682681740650899        251.16118786994343     
   98.888369464968619        4.8528324969869630       -5.9585472740887795        257.11973514403223     
   101.80723477239708        4.8530239511921840       -6.0564077078172858        263.17614285184953     
   104.72610007982554        4.8531899406182077       -6.1622694262129976        269.33841227806255     
   107.64496538725400        4.8533292651174973       -6.2765272672862844        275.61493954534882     
   110.56383069468247        4.8534406815016879       -6.3995492118653008        282.01448875721411     
   113.48269600211093        4.8535229115215772       -6.5316748812534424        288.54616363846753     
   116.40156130953939        4.8535746497159886       -6.6732142923074473        295.21937793077495     
   119.32042661696785        4.8535945710860213       -6.8244468780528900        302.04382480882782     
   122.23929192439631        4.8535813385516331       -6.9856207754214354        309.02944558424923     
   125.15815723182477        4.8535336101496167       -7.1569523761512386        316.18639796040048     
   128.07702253925325        4.8534500459351966       -7.3386261321978834        323.52502409259836     
   130.99588784668171        4.8533293145535330       -7.5307946031845638        331.05581869578293     
   133.91475315411017        4.8531700994519875       -7.7335787304048988        338.78939742618780     
   136.83361846153863        4.8529711047090425       -7.9470683196397305        346.73646574582756     
   139.75248376896710        4.8527310592564286       -8.1713232475659883        354.90778899339352     
   142.84648099484127        4.8524290146545752       -8.4211623856310140        363.32895137902455     
   146.12611805426789        4.8520536717415155       -8.6996144579736026        372.02856583699815     
   149.60253333726013        4.8515918753646536       -9.0100191177818711        381.03858495478005     
   153.28753353723189        4.8510283441159876       -9.3560408281797436        390.39462578295979     
   157.19363374920195        4.8503453716150906       -9.7416781486008244        400.13630393156063     
   161.33409997389023        4.8495224997270352       -10.171266901283348        410.30757083284396     
   165.72299417205980        4.8485361710407826       -10.649472733517968        420.95704356636190     
   170.11188837022937        4.8474331035012428       -11.149893282050568        432.10693684841249     
   174.50078256839893        4.8462109446445236       -11.671823653186857        443.77876050159932     
   178.88967676656850        4.8448676418108718       -12.214494018079874        455.99325451967917     
   183.27857096473807        4.8434014411308599       -12.777080466867595        468.77033498654674     
   187.66746516290763        4.8418108836457661       -13.358715528360388        482.12905051490714     
   192.05635936107720        4.8400947988855423       -13.958498207325377        496.08754872223250     
   196.44525355924677        4.8382522851932110       -14.575508786453508        510.66305750868599     
   201.09748140930651        4.8361564659087399       -15.247765754154020        525.91082326284004     
   205.74970925936626        4.8339174838163848       -15.937122887173377        541.84794615001340     
   210.40193710942600        4.8315352472660233       -16.642449504256405        558.49039565426983     
   215.05416495948575        4.8290099527592094       -17.362621872738238        575.85301752700809     
   219.24117002453951        4.8266216173404395       -18.021998029979667        593.87501555698771     
   223.67939539349649        4.8239607320541591       -18.732587723105176        612.60760328009292     
   228.38391428459090        4.8209959199944672       -19.497793331075371        632.10539661116832     
   233.37070430915097        4.8176925318529813       -20.321082470021636        652.42647908119000     
   238.65670173518464        4.8140124096915837       -21.205953250221373        673.63243233141134     
   244.25985900678035        4.8099136995631238       -22.155873956038448        695.78830628744981     
   249.86301627837605        4.8056202914516284       -23.116115050265758        718.90442133771558     
   255.46617354997176        4.8011355952812158       -24.085093456440294        742.98951479415587     
   261.06933082156746        4.7964632835532086       -25.061295218741463        768.05081001289727     
   266.67248809316317        4.7916072584671392       -26.043276723520897        794.09408673641815     
   272.27564536475887        4.7865716209457636       -27.029665437930500        821.12375217434862     
   277.87880263635458        4.7813606415102097       -28.019160196857900        849.14291237120653     
   283.48195990795028        4.7759787329701791       -29.010531053616134        878.15344342482263     
   289.08511717954599        4.7704304249085778       -30.002618707229349        908.15606213205194     
   294.68827445114169        4.7647203399475497       -30.994333524840197        939.15039565689210     
   300.29143172273740        4.7588531717829703       -31.984654187380503        971.13504984427266     
   305.89458899433311        4.7528336649679908       -32.972625996898863        1004.1076758411715     
   311.49774626592881        4.7466665964150687       -33.957358892651193        1038.0650347338226     
   317.10090353752452        4.7403567585719104       -34.938025228973984        1073.0030599627967     
   322.70406080912022        4.7339089442120015       -35.913857370661226        1108.9169173334578     
   328.30721808071593        4.7273279327664399       -36.884145161178672        1145.8010624946364     
   333.91037535231163        4.7206184781117635       -37.848233316006301        1183.6492958106428     
   339.51353262390734        4.7137852977192445       -38.805518788356203        1222.4548145989991     
   345.11668989550304        4.7068330630649191       -39.755448148142399        1262.2102627471415     
   350.71984716709875        4.6997663911966265       -40.697515008022435        1302.9077777551640     
   356.32300443869445        4.6925898373541370       -41.631257523107124        1344.5390352782711     
   361.92616171029016        4.6853078885408888       -42.556255984023238        1387.0952912622943     
   367.52931898188587        4.6779249579502524       -43.472130516652413        1430.5674217789467     
   373.13247625348157        4.6704453801553072       -44.378538896325118        1474.9459606752719     
   378.73563352507728        4.6628734069758053       -45.275174484326662        1520.2211351595986     
   384.33879079667298        4.6552130849939797       -46.161796973473258        1566.3829321330718     
   390.27813750456443        4.6469988345029938       -47.090052189385730        1613.4729843224575     
   396.57384501492936        4.6381915444402795       -48.060677723601181        1661.5336620460587     
   402.86955252529430        4.6292894076289404       -49.017769865914794        1710.5514319119734     
   409.16526003565923        4.6202977398606757       -49.961130439233251        1760.5125623512067     
   415.46096754602416        4.6112216949218343       -50.890606769940085        1811.4031691211469     
   421.75667505638910        4.6020662586604759       -51.806092467280571        1863.2092615884276     
   425.78592786302266        4.5961755566067639       -52.386245907817695        1915.5955074962453     
   430.05693583805424        4.5898977783879449       -52.994737998863627        1968.5902454951090     
   433.90084301558267        4.5842215411558858       -53.537148666023015        2022.1273941611321     
   437.97538462376281        4.5781765405418602       -54.106214826417720        2076.2336089875498     
   442.29439872843375        4.5717385841340814       -54.702823967226770        2130.9364329547766     
   446.87255367938491        4.5648819891100567       -55.327843816894912        2186.2642767716716     
   451.72539792739315        4.5575795146471147       -55.982116412506741        2242.2463931841785     
   456.86941283028187        4.5498022950612880       -56.666451410153883        2298.9128445943325     
   462.32206862734392        4.5415197746157814       -57.381618265018247        2356.2944628593509     
   468.10188377222971        4.5326996453065584       -58.128336866301268        2414.4227997256521     
   474.22848782580866        4.5233077893495697       -58.907266251946098        2473.3300659775982     
   480.72268812260234        4.5133082284985022       -59.718991176274159        2533.0490571538726     
   487.60654043720365        4.5026630826193941       -60.564006573519848        2593.6130637273923     
   494.90342389068104        4.4913325400205064       -61.442700345405179        2655.0557640727975     
   502.63812035136709        4.4792748417537540       -62.355335372184136        2717.4110994449816     
   510.83689859969428        4.4664462813496506       -63.302032152969716        2780.7131315979514     
   519.52760354292116        4.4528012201392428       -64.282753952267683        2844.9958855502191     
   528.73975078274157        4.4382921164399862       -65.297296676585958        2910.2931822268051     
   538.50462685695118        4.4228695645319442       -66.345285820820791        2976.6384680476258     
   548.85539549561338        4.4064830507308201       -67.425989946175903        3044.0644579938016     
   559.20616413427558        4.3900655845401975       -68.477561894542390        3112.5420198883439     
   569.55693277293778        4.3736247188062496       -69.500917862433511        3182.0429377507776     
   579.90770141159999        4.3571673711957759       -70.496987481369118        3252.5399252321467     
   590.25847005026219        4.3406998671849948       -71.466695014069387        3324.0066202462162     
   600.60923868892439        4.3242279904471594       -72.410943025830136        3396.4175632720462     
   610.96000732758660        4.3077570363853255       -73.330600196872780        3469.7481634689188     
   621.31077596624880        4.2912918655222674       -74.226493105655351        3543.9746565745741     
   631.66154460491100        4.2748369545314358       -75.099401322445956        3619.0740578970199     
   642.01231324357320        4.2583964428025016       -75.950056014480253        3695.0241139115001     
   652.36308188223541        4.2419741719571586       -76.779142921940561        3771.8032568334406     
   662.71385052089761        4.2255737164837663       -77.587309162351218        3849.3905659957918     
   673.06461915955981        4.2091984046102517       -78.375172894073103        3927.7657388898651     
   683.41538779822201        4.1928513301764880       -79.143333839455636        4006.9090727293205     
   693.76615643688422        4.1765353578705158       -79.892382396291211        4086.8014551256119     
   704.11692507554642        4.1602531289426423       -80.622901008942861        4167.4243561345547     
   714.46769371420862        4.1440070732390168       -81.335457826910115        4248.7598139614647     
   724.81846235287082        4.1277984222597217       -82.030836632380257        4330.7906505938454     
   735.79027710985281        4.1106626352701952       -82.749036191169736        4413.5396867850150     
   747.42040075225373        4.0925537275332813       -83.489412856306956        4497.0290996413223     
   759.05052439465464        4.0745014251149945       -84.209608060450563        4581.2387077017729     
   770.68064803705556        4.0565084412411512       -84.909937012758789        4666.1486447145317     
   782.31077167945648        4.0385776132501023       -85.590577934207076        4751.7392226487391     
   793.94089532185740        4.0207104761812369       -86.251970638380257        4837.9911932871191     
   806.26882638280233        4.0018478135324989       -86.931226123344615        4924.9224194104636     
   819.33643330740392        3.9819436877623939       -87.626923380769568        5012.5493427912334     
   833.18809664748164        3.9609539870786410       -88.336935013259534        5100.8862778044931     
   847.03975998755936        3.9400758932627595       -89.020494210589945        5189.9067720150833     
   860.89142332763709        3.9193137220040026       -89.678235579493432        5279.5850075945764     
   874.74308666771481        3.8986714471476995       -90.310787947324798        5369.8957955419010     
   888.59475000779253        3.8781527580686230       -90.918747453556875        5460.8145429954575     
   902.44641334787025        3.8577610984174733       -91.502682327370309        5552.3172253228277     
   916.29807668794797        3.8374996790683920       -92.063150453383486        5644.3803757762107     
   930.14974002802569        3.8173714717494747       -92.600716763514171        5736.9810925397251     
   944.00140336810341        3.7973791930269378       -93.115965071398364        5830.0970576111231     
   957.85306670818113        3.7775252865697757       -93.609503627447808        5923.7065612385713     
   971.70473004825885        3.7578119084310981       -94.081965826981758        6017.7885270655534     
