 #              _____________________  _______________________             #
 #              ___  __ \__  __ \_  / / /_  /___  ____/_  ___/             #
 #              __  / / /_  /_/ /  / / /_  __/_  __/  _____ \              #
 #              _  /_/ /_  _, _// /_/ / / /_ _  /___  ____/ /              #
 #              /_____/ /_/ |_| \____/  \__/ /_____/  /____/               #
 #                                                                         #
  
 #        time                      T            heat flux [W.L-2]   in    x              directions   cumulative flux
 #-----------------------------------------------------------------------------------------------

   0.0000000000000000        5.0949000000000000        4.9672671498011827        4.9672671498011827     
   1.0000000000000000        5.0951846236159906        4.8794995841239359        9.8467667339251186     
   1.8999999999999999        5.0954275032315950        4.8067201572140954        14.653486891139213     
   2.7100000000000000        5.0956360977317825        4.7458518744367666        19.399338765575980     
   3.5200000000000000        5.0958353960806528        4.6892516098031347        24.088590375379113     
   4.3300000000000001        5.0960260442425795        4.6365842005791080        28.725174575958221     
   5.1400000000000006        5.0962086376552396        4.5875419384185010        33.312716514376724     
   5.9500000000000011        5.0963837253570459        4.5418422310487703        37.854558745425493     
   6.7600000000000016        5.0965518137643828        4.4992254703500594        42.353784215775555     
   7.5700000000000021        5.0967133701294101        4.4594530880811956        46.813237303856752     
   8.3800000000000026        5.0968688257064541        4.4223057822338889        51.235543086090644     
   9.1900000000000031        5.0970185786524045        4.3875818985843873        55.623124984675030     
   10.000000000000004        5.0971629966843270        4.3550959534334659        59.978220938108493     
   10.810000000000004        5.0973024196058221        4.3246772626399075        64.302898200748402     
   11.668600000000005        5.0974449675105635        4.2945700575900165        68.597468258338424     
   12.578716000000005        5.0975905862436948        4.2648549268534204        72.862323185191840     
   13.543438960000005        5.0977392233185048        4.2356086617518178        77.097931846943652     
   14.508161920000004        5.0978825440180993        4.2084158143372354        81.306347661280881     
   15.530768257600005        5.0980289252581406        4.1816853350785861        85.488032996359465     
   16.614730975456006        5.0981783339886970        4.1554755718682141        89.643508568227674     
   17.763731456383365        5.0983307412373176        4.1298375804369272        93.773346148664601     
   18.912731937310724        5.0984776330791677        4.1061269381961276        97.879473086860727     
   20.130672447093726        5.0986276211020458        4.0829296087208640        101.96240269558159     
   21.421689387463708        5.0987806929294841        4.0602741407591818        106.02267683634076     
   22.790167344255888        5.0989368381752804        4.0381796102056429        110.06085644654641     
   24.158645301048068        5.0990873472453249        4.0177836997332186        114.07864014627962     
   25.609231935247781        5.0992410516615063        3.9978423546848769        118.07648250096450     
   27.146853767499476        5.0993979408482364        3.9783527651074810        122.05483526607199     
   28.684475599751170        5.0995492478094695        3.9603056048191889        126.01514087089117     
   30.314354741937969        5.0997038335364362        3.9425854216601293        129.95772629255131     
   32.042026632655976        5.0998616659450580        3.9251716462325055        133.88289793878383     
   33.769698523373982        5.1000138942574766        3.9089443965099742        137.79184233529381     
   35.601030727535068        5.1001693962238628        3.8928918477876508        141.68473418308145     
   37.432362931696154        5.1003194172026252        3.8778310620794900        145.56256524516093     
   39.373575068106902        5.1004726705855541        3.8628241455918917        149.42538939075283     
   41.314787204517650        5.1006204932007932        3.8486430251120596        153.27403241586489     
   43.372472069113044        5.1007714309462342        3.8344080722304277        157.10844048809531     
   45.430156933708439        5.1009169169944037        3.8208612711027845        160.92930175919810     
   47.611302890179559        5.1010653190735713        3.8071676853251435        164.73646944452324     
   49.792448846650679        5.1012081812962045        3.7940517923080224        168.53052123683125     
   52.104463560510062        5.1013536749402615        3.7807119010322263        172.31123313786347     
   54.416478274369446        5.1014934792669626        3.7678647146359241        176.07909785249939     
   56.867213871060393        5.1016355433440914        3.7547324435665175        179.83383029606591     
   59.317949467751340        5.1017717150202984        3.7420311728901323        183.57586146895605     
   61.915729200243746        5.1019096882157857        3.7289996977736508        187.30486116672969     
   64.513508932736158        5.1020415213060764        3.7163582112455353        191.02121937797523     
   67.111288665228571        5.1021674237428911        3.7040730764591578        194.72529245443440     
   69.864935181670518        5.1022944460291546        3.6914192059056545        198.41671166034004     
   72.618581698112465        5.1024152475811864        3.6791082837968756        202.09581994413691     
   75.537447005540926        5.1025365447215094        3.6664198117209610        205.76223975585788     
   78.456312312969388        5.1026513128426432        3.6540731695624586        209.41631292542033     
   81.375177620397849        5.1027597635850510        3.6420527251048234        213.05836565052516     
   84.294042927826311        5.1028620985495685        3.6303456671113725        216.68871131763655     
   87.212908235254773        5.1029585106136137        3.6189413302212916        220.30765264785785     
   90.131773542683234        5.1030491849486648        3.6078306730491909        223.91548332090704     
   93.050638850111696        5.1031342998079694        3.5970058761173629        227.51248919702439     
   95.969504157540158        5.1032140271381614        3.5864600334356735        231.09894923046008     
   98.888369464968619        5.1032885330565811        3.5761869171277234        234.67513614758781     
   101.80723477239708        5.1033579782267058        3.5661807989203407        238.24131694650814     
   104.72610007982554        5.1034225181567319        3.5564363157988250        241.79775326230697     
   107.64496538725400        5.1034823034406731        3.5469483698359898        245.34470163214297     
   110.56383069468247        5.1035374799567927        3.5377120543759180        248.88241368651890     
   113.48269600211093        5.1035881890346753        3.5287226004472045        252.41113628696610     
   116.40156130953939        5.1036345675995642        3.5199753386043038        255.93111162557040     
   119.32042661696785        5.1036767483004208        3.5114656724657967        259.44257729803621     
   122.23929192439631        5.1037148596265070        3.5031890610434306        262.94576635907964     
   125.15815723182477        5.1037490260160849        3.4951410075947047        266.44090736667437     
   128.07702253925325        5.1037793679597669        3.4873170532692419        269.92822441994360     
   130.99588784668171        5.1038060021003728        3.4797127742067642        273.40793719415035     
   133.91475315411017        5.1038290413305649        3.4723237810551120        276.88026097520549     
   136.83361846153863        5.1038485948890626        3.4651457201477021        280.34540669535318     
   139.75248376896710        5.1038647685152645        3.4581742818105359        283.80358097716373     
   142.84648099484127        5.1038782363009805        3.4510116218139633        287.25459259897769     
   146.12611805426789        5.1038885208763869        3.4436683428742825        290.69826094185197     
   149.60253333726013        5.1038950973935968        3.4361573658489699        294.13441830770091     
   153.28753353723189        5.1038973907759289        3.4284941121650090        297.56291241986594     
   157.19363374920195        5.1038947730030220        3.4206966823265619        300.98360910219247     
   161.33409997389023        5.1038865604515706        3.4127860271512640        304.39639512934372     
   165.72299417205980        5.1038720112175797        3.4047861071127898        307.80118123645650     
   170.11188837022937        5.1038518707926208        3.3971588155373507        311.19834005199385     
   174.50078256839893        5.1038263791279679        3.3898917383564786        314.58823179035033     
   178.88967676656850        5.1037957641092824        3.3829728010702071        317.97120459142053     
   183.27857096473807        5.1037602421591348        3.3763902707481428        321.34759486216865     
   187.66746516290763        5.1037200188165599        3.3701327558771781        324.71772761804584     
   192.05635936107720        5.1036752892930846        3.3641892044018338        328.08191682244768     
   196.44525355924677        5.1036262390594569        3.3585488935249552        331.44046571597266     
   201.09748140930651        5.1035696000850166        3.3528985551397517        334.79336427111241     
   205.74970925936626        5.1035085135482312        3.3475646657366496        338.14092893684904     
   210.40193710942600        5.1034431671213785        3.3425356922656224        341.48346462911468     
   215.05416495948575        5.1033737386262796        3.3378004940376962        344.82126512315239     
   219.24117002453951        5.1033080700308631        3.3337688950636988        348.15503401821610     
   223.67939539349649        5.1032350246703340        3.3297448630260438        351.48477888124216     
   228.38391428459090        5.1031538928786908        3.3257492705473708        354.81052815178953     
   233.37070430915097        5.1030639091556349        3.3218052414975663        358.13233339328707     
   238.65670173518464        5.1029642490540734        3.3179382202295700        361.45027161351663     
   244.25985900678035        5.1028540259519684        3.3141760382648369        364.76444765178150     
   249.86301627837605        5.1027394286487091        3.3107357885469955        368.07518344032849     
   255.46617354997176        5.1026206536982848        3.3076031973366993        371.38278663766516     
   261.06933082156746        5.1024978858772574        3.3047646030601960        374.68755124072538     
   266.67248809316317        5.1023712989589507        3.3022069320276981        377.98975817275306     
   272.27564536475887        5.1022410564343081        3.2999176748713173        381.28967584762438     
   277.87880263635458        5.1021073121831346        3.2978848637138998        384.58756071133826     
   283.48195990795028        5.1019702110992036        3.2960970500834810        387.88365776142172     
   289.08511717954599        5.1018298896724685        3.2945432835649129        391.17820104498662     
   294.68827445114169        5.1016864765314196        3.2932130911912365        394.47141413617788     
   300.29143172273740        5.1015400929484400        3.2920964575558922        397.76351059373377     
   305.89458899433311        5.1013908533107815        3.2911838056333775        401.05469439936712     
   311.49774626592881        5.1012388655596057        3.2904659782973407        404.34516037766446     
   317.10090353752452        5.1010842315993816        3.2899342205172153        407.63509459818169     
   322.70406080912022        5.1009270476797415        3.2895801622113798        410.92467476039309     
   328.30721808071593        5.1007674047517346        3.2893958017461209        414.21407056213923     
   333.91037535231163        5.1006053888003287        3.2893734900578200        417.50344405219704     
   339.51353262390734        5.1004410811547922        3.2895059153805870        420.79294996757761     
   345.11668989550304        5.1002745587785423        3.2897860885680479        424.08273605614568     
   350.71984716709875        5.1001058945398876        3.2902073289790734        427.37294338512476     
   356.32300443869445        5.0999351574649845        3.2907632509283187        430.66370663605306     
   361.92616171029016        5.0997624129742736        3.2914477506642768        433.95515438671737     
   367.52931898188587        5.0995877231034994        3.2922549938777075        437.24740938059506     
   373.13247625348157        5.0994111467104064        3.2931794037110400        440.54058878430612     
   378.73563352507728        5.0992327396680732        3.2942156492557975        443.83480443356194     
   384.33879079667298        5.0990525549902515        3.2953586219744202        447.13016305553634     
   390.27813750456443        5.0988596218320410        3.2966843197723166        450.42684737530868     
   396.57384501492936        5.0986530033245074        3.2982112757620010        453.72505865107070     
   402.86955252529430        5.0984443391738070        3.2998536999114614        457.02491235098216     
   409.16526003565923        5.0982336897660891        3.3016056651718992        460.32651801615407     
   415.46096754602416        5.0980211123121109        3.3034615341056677        463.62997955025975     
   421.75667505638910        5.0978066610565937        3.3054159441052460        466.93539549436497     
   425.78592786302266        5.0976686584960467        3.3067057688432429        470.24210126320821     
   430.05693583805424        5.0975215446372877        3.3081152364255679        473.55021649963379     
   433.90084301558267        5.0973884800676732        3.3094168710961176        476.85963337072991     
   437.97538462376281        5.0972467005728621        3.3108325387072157        480.17046590943710     
   442.29439872843375        5.0970956076759437        3.3123720526225027        483.48283796205959     
   446.87255367938491        5.0969345598403653        3.3140459636201176        486.79688392567971     
   451.72539792739315        5.0967628692954259        3.3158655939149630        490.11274951959467     
   456.86941283028187        5.0965797986318337        3.3178430690560861        493.43059258865077     
   462.32206862734392        5.0963845571517279        3.3199913469457210        496.75058393559647     
   468.10188377222971        5.0961762969566777        3.3223242431421189        500.07290817873860     
   474.22848782580866        5.0959541087563220        3.3248564514924195        503.39776463023099     
   480.72268812260234        5.0957170173794530        3.3276035590844906        506.72536818931547     
   487.60654043720365        5.0954639769686407        3.3305820543804003        510.05595024369586     
   494.90342389068104        5.0951938658388860        3.3338093273325771        513.38975957102843     
   502.63812035136709        5.0949054809804597        3.3373036601713024        516.72706323119974     
   510.83689859969428        5.0945975321860448        3.3410842074688381        520.06814743866857     
   519.52760354292116        5.0942686357827300        3.3451709639840921        523.41331840265264     
   528.73975078274157        5.0939173079503757        3.3495847186931482        526.76290312134574     
   538.50462685695118        5.0935419576096637        3.3543469932872840        530.11725011463307     
   548.85539549561338        5.0931408791003356        3.3594799780742850        533.47673009270738     
   559.20616413427558        5.0927366870475321        3.3646894775579512        536.84141957026532     
   569.55693277293778        5.0923294704241728        3.3699676389642517        540.21138720922954     
   579.90770141159999        5.0919193137755432        3.3753071505678895        543.58669435979743     
   590.25847005026219        5.0915062976114571        3.3807011986932394        546.96739555849069     
   600.60923868892439        5.0910904987577323        3.3861434283073795        550.35353898679807     
   610.96000732758660        5.0906719906711988        3.3916279069049780        553.74516689370307     
   621.31077596624880        5.0902508437220950        3.3971490913831155        557.14231598508616     
   631.66154460491100        5.0898271254472345        3.4027017976473286        560.54501778273345     
   642.01231324357320        5.0894009007769716        3.4082811726974960        563.95329895543091     
   652.36308188223541        5.0889722322386790        3.4138826689792094        567.36718162441014     
   662.71385052089761        5.0885411801391456        3.4195020207941518        570.78668364520433     
   673.06461915955981        5.0881078027280591        3.4251352225830836        574.21181886778743     
   683.41538779822201        5.0876721563445058        3.4307785089153544        577.64259737670284     
   693.76615643688422        5.0872342955481971        3.4364283360318648        581.07902571273473     
   704.11692507554642        5.0867942732369933        3.4420813647965773        584.52110707753127     
   714.46769371420862        5.0863521407520800        3.4477344449430416        587.96884152247435     
   724.81846235287082        5.0859079477563123        3.4533845977725801        591.42222612024693     
   735.79027710985281        5.0854348459029959        3.4593671327569155        594.88159325300387     
   747.42040075225373        5.0849308885559443        3.4656974278886938        598.34729068089257     
   759.05052439465464        5.0844245262481476        3.4720129914575528        601.81930367235009     
   770.68064803705556        5.0839158218277412        3.4783104816004085        605.29761415395046     
   782.31077167945648        5.0834048363923312        3.4845867326935873        608.78220088664409     
   793.94089532185740        5.0828916291129893        3.4908387384732649        612.27303962511735     
   806.26882638280233        5.0823452019752029        3.4974352275503358        615.77047485266769     
   819.33643330740392        5.0817633412016585        3.5043892415771185        619.27486409424478     
   833.18809664748164        5.0811436854728065        3.5117131579937149        622.78657725223854     
   847.03975998755936        5.0805212348673141        3.5189855929380256        626.30556284517661     
   860.89142332763709        5.0798960753779969        3.5262025821333305        629.83176542730996     
   874.74308666771481        5.0792682902796473        3.5333603155307700        633.36512574284075     
   888.59475000779253        5.0786379601862475        3.5404551161379372        636.90558085897874     
   902.44641334787025        5.0780051630977736        3.5474834206012242        640.45306427957996     
   916.29807668794797        5.0773699744381062        3.5544417614046728        644.00750604098459     
   930.14974002802569        5.0767324670853826        3.5613267505762805        647.56883279156091     
   944.00140336810341        5.0760927113959466        3.5681350648001011        651.13696785636103     
   957.85306670818113        5.0754507752229774        3.5748634318389425        654.71183128819996     
   971.70473004825885        5.0748067239307195        3.5815086181885700        658.29333990638850     
