 #              _____________________  _______________________             #
 #              ___  __ \__  __ \_  / / /_  /___  ____/_  ___/             #
 #              __  / / /_  /_/ /  / / /_  __/_  __/  _____ \              #
 #              _  /_/ /_  _, _// /_/ / / /_ _  /___  ____/ /              #
 #              /_____/ /_/ |_| \____/  \__/ /_____/  /____/               #
 #                                                                         #
  
 #        time                      T            heat flux [W.L-2]   in    x              directions   cumulative flux
 #-----------------------------------------------------------------------------------------------

   0.0000000000000000        4.6891999999999996       -6.9453218623472290        6.9453218623472290     
   1.0000000000000000        4.3845609638520742       -100.92528709608195        107.87060895842917     
   1.8999999999999999        4.1325158051693691       -176.45779313801916        284.32840209644831     
   2.7100000000000000        3.9219694049939084       -237.82031986666161        522.14872196310989     
   3.5200000000000000        3.7257397669205070       -293.36637022300977        815.51509218611966     
   4.3300000000000001        3.5426078588746548       -343.63996820007134        1159.1550603861911     
   5.1400000000000006        3.3714653316683725       -389.13440142308997        1548.2894618092810     
   5.9500000000000011        3.2113043358578364       -430.29677740246984        1978.5862392117508     
   6.7600000000000016        3.0612082504431624       -467.53222590378721        2446.1184651155381     
   7.5700000000000021        2.9203432499773054       -501.20775888838847        2947.3262240039267     
   8.3800000000000026        2.7879506404742203       -531.65580447976288        3478.9820284836896     
   9.1900000000000031        2.6633398987068286       -559.17743424799653        4038.1594627316863     
   10.000000000000004        2.5458823538523654       -584.04530446288163        4622.2047671945675     
   10.810000000000004        2.4349946597238468       -606.51059702579983        5228.7153642203675     
   11.668600000000005        2.3240758325650459       -627.93192269833355        5856.6472869187010     
   12.578716000000005        2.2133121115764025       -648.22166337489170        6504.8689502935922     
   13.543438960000005        2.1028899819517428       -667.29642699044086        7172.1653772840327     
   14.508161920000004        1.9989868017030767       -684.15431302024604        7856.3196903042790     
   15.530768257600005        1.8953296627717122       -699.86484232689793        8556.1845326311777     
   16.614730975456006        1.7920488186344210       -714.37555448377691        9270.5600871149545     
   17.763731456383365        1.6892684879025732       -727.64086938316143        9998.2009564981163     
   18.912731937310724        1.5927026294340951       -739.00166115238062        10737.202617650497     
   20.130672447093726        1.4964322254050575       -749.24011611176456        11486.442733762262     
   21.421689387463708        1.4005290153189194       -758.33863525356992        12244.781369015833     
   22.790167344255888        1.3050569975295447       -766.28656767064933        13011.067936686482     
   24.158645301048068        1.2153152692164451       -772.72348986748739        13783.791426553969     
   25.609231935247781        1.1257263708240566       -778.16660753366045        14561.958034087629     
   27.146853767499476        1.0363240647466214       -782.62137509560193        15344.579409183230     
   28.684475599751170       0.95209491197405161       -785.90738307930508        16130.486792262536     
   30.314354741937969       0.86777159092550660       -788.35923379338794        16918.846026055926     
   32.042026632655976       0.78337213620875790       -789.99062936204587        17708.836655417970     
   33.769698523373982       0.70364182863082780       -790.75845578092890        18499.595111198898     
   35.601030727535068       0.62358145020155198       -790.84253562179265        19290.437646820690     
   37.432362931696154       0.54773184509299122       -790.26679829559453        20080.704445116284     
   39.373575068106902       0.47134184885954411       -789.12047941451044        20869.824924530792     
   41.314787204517650       0.39878135992652985       -787.47925379397077        21657.304178324765     
   43.372472069113044       0.32551029584894903       -785.35926037154491        22442.663438696309     
   45.430156933708439       0.25575427133900858       -782.87606432458904        23225.539503020897     
   47.611302890179559       0.18515303664345811       -779.98727143747976        24005.526774458376     
   49.792448846650679       0.11780891379359648       -776.83929018448691        24782.366064642862     
   52.104463560510062        4.9515380220318317E-002  -773.34316055295210        25555.709225195813     
   54.416478274369446       -1.5732104983936290E-002  -769.66929771751575        26325.378522913328     
   56.867213871060393       -8.2007927956191495E-002  -765.69189607603755        27091.070418989366     
   59.317949467751340      -0.14541062467333843       -826.77327288044944        27917.843691869813     
   61.915729200243746      -0.20990016164607045       -854.29775147966427        28772.141443349479     
   64.513508932736158      -0.27164249258101703       -886.91465008513023        29659.056093434610     
   67.111288665228571      -0.33088940615461787       -917.19567103292229        30576.251764467532     
   69.864935181670518      -0.39133177976463829       -934.05072653614616        31510.302491003677     
   72.618581698112465      -0.44936045861122415       -923.64655448824396        32433.949045491921     
   75.537447005540926      -0.45851902076998735       -900.77360432460364        33334.722649816526     
   78.456312312969388      -0.46799323996464692       -879.18639444080225        34213.909044257329     
   81.375177620397849      -0.47749200494610822       -858.65987876671522        35072.568923024046     
   84.294042927826311      -0.48682961602637470       -839.08993809736751        35911.658861121410     
   87.212908235254773      -0.49589626736312525       -795.35408665299315        36707.012947774405     
   90.131773542683234      -0.50463291102892027       -744.95473207788166        37451.967679852285     
   93.050638850111696      -0.51301395479536538       -712.36165104060410        38164.329330892891     
   95.969504157540158      -0.52103550016768196       -690.12329979120670        38854.452630684100     
   98.888369464968619      -0.52870741551120271       -674.23036784910903        39528.682998533208     
   101.80723477239708      -0.53604803026202918       -662.42590108194213        40191.108899615152     
   104.72610007982554      -0.54308060645306833       -653.38239321636615        40844.491292831517     
   107.64496538725400      -0.54983100911089910       -646.28515209233342        41490.776444923853     
   110.56383069468247      -0.55632618208778428       -640.61292283924115        42131.389367763091     
   113.48269600211093      -0.56259316295001105       -636.01792360120862        42767.407291364303     
   116.40156130953939      -0.56865845708072427       -632.25787985427348        43399.665171218578     
   119.32042661696785      -0.57454764985411011       -629.15625945877548        44028.821430677352     
   122.23929192439631      -0.58028517549525249       -626.57834777676794        44655.399778454121     
   125.15815723182477      -0.58589418817131977       -624.41652939722007        45279.816307851339     
   128.07702253925325      -0.59139649911803471       -622.58110409127619        45902.397411942613     
   130.99588784668171      -0.59681255599179095       -620.99454139895943        46523.391953341576     
   133.91475315411017      -0.60216144903444879       -619.58794008045504        47142.979893422031     
   136.83361846153863      -0.60746093430870141       -618.29894013852447        47761.278833560558     
   139.75248376896710      -0.61297381340512980       -619.44233209456434        48380.721165655123     
   142.84648099484127      -0.61877226893098725       -612.77208323829200        48993.493248893414     
   146.12611805426789      -0.62488641554657909       -606.11933691113654        49599.612585804549     
   149.60253333726013      -0.63135141392178795       -599.47963256476612        50199.092218369318     
   153.28753353723189      -0.63820812463678311       -592.84181098042416        50791.934029349744     
   157.19363374920195      -0.64550380744117553       -586.18755567447454        51378.121585024222     
   161.33409997389023      -0.65364437134394360       -579.09258008839868        51957.214165112622     
   165.72299417205980      -0.66660131501132758       -568.85103208061844        52526.065197193238     
   170.11188837022937      -0.68216692971892035       -559.21354932031397        53085.278746513555     
   174.50078256839893      -0.70051556483974742       -550.82461629812315        53636.103362811678     
   178.88967676656850      -0.72194914696461765       -544.08155695441042        54180.184919766092     
   183.27857096473807      -0.74689478708379253       -539.24559732440378        54719.430517090499     
   187.66746516290763      -0.77592539153107176       -536.49647059663278        55255.926987687133     
   192.05635936107720      -0.78659969779597239       -531.81329614483025        55787.740283831961     
   196.44525355924677      -0.79678430023936564       -527.53461177719123        56315.274895609153     
   201.09748140930651      -0.80834473170884213       -523.04409909726678        56838.318994706417     
   205.74970925936626      -0.82036301285088797       -518.74709793927718        57357.066092645691     
   210.40193710942600      -0.83288203852459874       -514.67461495577606        57871.740707601464     
   215.05416495948575      -0.84324048612217317       -515.19572742661649        58386.936435028081     
   219.24117002453951      -0.85260351201189977       -515.53151446280435        58902.467949490885     
   223.67939539349649      -0.86258298932846589       -516.02258944889991        59418.490538939783     
   228.38391428459090      -0.87320556710672714       -516.74556651180421        59935.236105451586     
   233.37070430915097      -0.88448976620955744       -517.78973581481569        60453.025841266404     
   238.65670173518464      -0.89644144952870219       -519.26075258532285        60972.286593851728     
   244.25985900678035      -0.90876519265045685       -522.04140401924042        61494.327997870969     
   249.86301627837605      -0.92086622981744792       -525.38778236236737        62019.715780233339     
   255.46617354997176      -0.93267266913582314       -529.34927331640802        62549.065053549748     
   261.06933082156746      -0.94411753098120210       -533.97012652157775        63083.035180071325     
   266.67248809316317      -0.95514335046414467       -539.29018934063924        63622.325369411963     
   272.27564536475887      -0.96570584784849800       -545.34559265305586        64167.670962065022     
   277.87880263635458      -0.97577614701273008       -552.16911096045249        64719.840073025473     
   283.48195990795028      -0.98534135401594247       -559.79005746319422        65279.630130488666     
   289.08511717954599      -0.99440364740319442       -568.23364712055343        65847.863777609222     
   294.68827445114169       -1.0029782709535555       -577.51984055624985        66425.383618165477     
   300.29143172273740       -1.0110909113320123       -587.66174593753078        67013.045364103004     
   305.89458899433311       -1.0187749061868483       -598.66369663573221        67611.709060738736     
   311.49774626592881       -1.0260686164483555       -610.51914353686027        68222.228204275598     
   317.10090353752452       -1.0330131648629337       -623.20851063000157        68845.436714905605     
   322.70406080912022       -1.0396506278926059       -636.69716749302336        69482.133882398630     
   328.30721808071593       -1.0460226856653940       -650.93367482311703        70133.067557221744     
   333.91037535231163       -1.0521696852500826       -665.84845776702753        70798.916014988776     
   339.51353262390734       -1.0581300493379215       -681.35305303538530        71480.269068024165     
   345.11668989550304       -1.0639399568653716       -697.34005606604535        72177.609124090217     
   350.71984716709875       -1.0696332267728508       -713.68386162559852        72891.292985715816     
   356.32300443869445       -1.0752413456169447       -730.24224528520733        73621.535231001020     
   361.92616171029016       -1.0807935907757884       -746.85877688842459        74368.394007889452     
   367.52931898188587       -1.0863172116520212       -763.36599557158183        75131.760003461037     
   373.13247625348157       -1.0918376407206176       -779.58921591611227        75911.349219377153     
   378.73563352507728       -1.0992233046518674       -788.87589689662173        76700.225116273781     
   384.33879079667298       -1.1069318215365913       -797.41379938086061        77497.638915654636     
   390.27813750456443       -1.1171028514979655       -800.07973402845585        78297.718649683098     
   396.57384501492936       -1.1319163626208255       -794.81992946929643        79092.538579152388     
   402.86955252529430       -1.1488870678575702       -787.44500963346263        79879.983588785850     
   409.16526003565923       -1.1680459462246175       -778.93338896378395        80658.916977749628     
   415.46096754602416       -1.1895301230309394       -769.85481747018605        81428.771795219815     
   421.75667505638910       -1.2135796162073618       -760.56473380204932        82189.336529021864     
   425.78592786302266       -1.2295101124657750       -754.49895471479772        82943.835483736664     
   430.05693583805424       -1.2360207816217474       -753.45775521707208        83697.293238953731     
   433.90084301558267       -1.2418741206739312       -752.47446077729842        84449.767699731034     
   437.97538462376281       -1.2476740528452530       -753.95919522270685        85203.726894953739     
   442.29439872843375       -1.2539236503072926       -755.23400414146352        85958.960899095197     
   446.87255367938491       -1.2606621410393342       -756.28863691456138        86715.249536009753     
   451.72539792739315       -1.2679321501545657       -757.12109092972582        87472.370626939475     
   456.86941283028187       -1.2757798045470856       -757.74054486088028        88230.111171800352     
   462.32206862734392       -1.2842547286441321       -758.17077452567094        88988.281946326024     
   468.10188377222971       -1.2934098646153498       -758.45404405567638        89746.735990381698     
   474.22848782580866       -1.3033010188358778       -758.65544172810439        90505.391432109798     
   480.72268812260234       -1.3139417589172429       -758.80489823238395        91264.196330342180     
   487.60654043720365       -1.3253751127932107       -759.00992844235191        92023.206258784528     
   494.90342389068104       -1.3376405602204653       -759.41613227828475        92782.622391062818     
   502.63812035136709       -1.3507676731045728       -760.20901310901672        93542.831404171840     
   510.83689859969428       -1.3647700946398251       -761.61824347320919        94304.449647645044     
   519.52760354292116       -1.3796375116198658       -763.92097292677568        95068.370620571819     
   528.73975078274157       -1.3953248255565422       -767.44316362409916        95835.813784195925     
   538.50462685695118       -1.4117508978641382       -772.55294354328782        96608.366727739209     
   548.85539549561338       -1.4281854823832811       -781.53553826154928        97389.902266000761     
   559.20616413427558       -1.4439468750990243       -792.22424982838618        98182.126515829150     
   569.55693277293778       -1.4588759478778228       -805.94001048870052        98988.066526317853     
   579.90770141159999       -1.4729677094010503       -820.79048882832967        99808.857015146175     
   590.25847005026219       -1.4863759600553614       -836.68991044594645        100645.54692559212     
   600.60923868892439       -1.4992628788211175       -853.34631932116804        101498.89324491328     
   610.96000732758660       -1.5118072990914697       -870.45128985977465        102369.34453477306     
   621.31077596624880       -1.5241836138688758       -887.69869262658256        103257.04322739964     
   631.66154460491100       -1.5378926787026248       -903.54783218246200        104160.59105958210     
   642.01231324357320       -1.5567418010738743       -914.79784570530865        105075.38890528741     
   652.36308188223541       -1.5788160015619985       -923.70899880511058        105999.09790409253     
   662.71385052089761       -1.6026050589532015       -931.11969144779550        106930.21759554032     
   673.06461915955981       -1.6272518655979444       -937.44028782641442        107867.65788336673     
   683.41538779822201       -1.6521987536376395       -942.88107796715951        108810.53896133389     
   693.76615643688422       -1.6770431431544597       -947.55213196869431        109758.09109330259     
   704.11692507554642       -1.6908894348356529       -956.21722717297530        110714.30832047557     
   714.46769371420862       -1.7040262532505133       -963.46949803181451        111677.77781850738     
   724.81846235287082       -1.7169991141573151       -970.55658842755599        112648.33440693494     
   735.79027710985281       -1.7310476778398585       -977.04740828580509        113625.38181522074     
   747.42040075225373       -1.7460278021509679       -983.35127409702307        114608.73308931776     
   759.05052439465464       -1.7604828472387590       -988.27453888444393        115597.00762820221     
   770.68064803705556       -1.7746066917564380       -990.88371871255958        116587.89134691477     
   782.31077167945648       -1.7890624404919542       -991.61504721241749        117579.50639412718     
   793.94089532185740       -1.8036283512997116       -992.36817473832639        118571.87456886550     
   806.26882638280233       -1.8193961300869521       -991.76702857049793        119563.64159743600     
   819.33643330740392       -1.8365714944485017       -990.03166285965870        120553.67326029566     
   833.18809664748164       -1.8554533906946029       -986.28713071147808        121539.96039100715     
   847.03975998755936       -1.8725104255973168       -988.21971460997202        122528.18010561712     
   860.89142332763709       -1.8874487457380460       -987.78442035182138        123515.96452596894     
   874.74308666771481       -1.9002856774628989       -985.20365969086401        124501.16818565980     
   888.59475000779253       -1.9120063703484369       -981.37991536093045        125482.54810102073     
   902.44641334787025       -1.9228416967747655       -976.58516412651761        126459.13326514725     
   916.29807668794797       -1.9329781066075595       -971.03190966008447        127430.16517480733     
   930.14974002802569       -1.9425715905439751       -964.88758152147034        128395.05275632881     
   944.00140336810341       -1.9517599394935603       -958.28716258691327        129353.33991891572     
   957.85306670818113       -1.9606723187415329       -951.34412968687150        130304.68404860259     
   971.70473004825885       -1.9694362886952939       -944.15762093421984        131248.84166953681     
