 #              _____________________  _______________________             #
 #              ___  __ \__  __ \_  / / /_  /___  ____/_  ___/             #
 #              __  / / /_  /_/ /  / / /_  __/_  __/  _____ \              #
 #              _  /_/ /_  _, _// /_/ / / /_ _  /___  ____/ /              #
 #              /_____/ /_/ |_| \____/  \__/ /_____/  /____/               #
 #                                                                         #
  
 #        time                      T            heat flux [W.L-2]   in    x              directions   cumulative flux
 #-----------------------------------------------------------------------------------------------

   0.0000000000000000          5.5797999999999996          -5.0280037226369796          0.0000000000000000     
   1.0000000000000000          5.5792416507348364          -4.8821964771009565          0.0000000000000000     
   2.0060000000000002          5.5787117564269018          -4.7480967158411636          4.7480967158411636     
   3.0180360000000004          5.5782081221028879          -4.6247123491742670          9.4005573391104758     
   4.0361442160000003          5.5777287281558241          -4.5111349338291467          13.965988293003189     
   5.0603610812960005          5.5772717165041898          -4.4065329234701007          18.452315666462596     
   6.0907232477837763          5.5768353777840955          -4.3101454273757396          22.866839305059266     
   7.1272675872704792          5.5764181395039527          -4.2212764424246476          27.216282845619737     
   8.1700311927941023          5.5760185550952999          -4.1392895256413906          31.506839972919920     
   9.2190513799508675          5.5756352937974949          -4.0636028765570096          35.744217159894674     
   10.274365688230573          5.5752671313178226          -3.9936848005418843          39.933673136804245     
   11.336011882359955          5.5749129412121841          -3.9290495260662563          44.080055319601563     
   12.404027953654115          5.5745716869350348          -3.8692533505535192          48.187833413339071     
   13.478452121376039          5.5742424145104277          -3.8138910911013468          52.261130392800929     
   14.559322834104295          5.5739242457791889          -3.7625928178831880          56.303751049631565     
   15.646678771108920          5.5736163721801120          -3.7150208494747514          60.319208283003668     
   16.740558843735574          5.5733180490258798          -3.6708669907325651          64.310747299331027     
   17.841002196797987          5.5730285902369516          -3.6298499951139322          68.281367875610115     
   18.948048209978776          5.5727473634991993          -3.5917132345728016          72.233844830702054     
   20.061736499238648          5.5724737858133215          -3.5562225612804212          76.170746839151107     
   21.182106918234080          5.5722073194062762          -3.5231643465127838          80.094453713000306     
   22.309199559743483          5.5719474679770471          -3.4923436830646297          84.007172268471479     
   23.443054757101944          5.5716937732509297          -3.4635827384824136          87.910950886273994     
   24.583713085644554          5.5714458118183963          -3.4367192473254042          91.807692866715755     
   25.731215364158420          5.5712031922362604          -3.4116051314852882          95.699168673643157     
   26.885602656343369          5.5709655523704704          -3.3881052383941062          99.587027154545169     
   28.046916272281429          5.5707325569613610          -3.3660961876799655          103.47280581787513     
   29.215197769915118          5.5705038953935775          -3.3454653175236535          107.35794024276389     
   30.390488956534607          5.5702792796542004          -3.3261097226117213          111.24377269079068     
   31.572831890273815          5.5700584424638375          -3.3079353761955774          115.13155998434017     
   32.762268881615455          5.5698411355665636          -3.2908563293063837          119.02248071124652     
   33.958842494905149          5.5696271281656813          -3.2747939807328019          122.91764181095306     
   35.162595549874581          5.5694162054932548          -3.2596764118325394          126.81808459321469     
   36.373571123173825          5.5692081675023006          -3.2454377807171579          130.72479023646619     
   37.591812549912866          5.5690028276713734          -3.2320177707749975          134.63868480934380     
   38.817363425212342          5.5688000119121082          -3.2193610888916235          138.56064385546330     
   40.050267605763615          5.5685995575709910          -3.2074170090873331          142.49149657840070     
   41.290569211398200          5.5684013125173557          -3.1961389576475252          146.43202966090712     
   42.538312626666588          5.5682051343102348          -3.1854841361239838          150.38299074966520     
   43.793542502426590          5.5680108894372697          -3.1754131788880633          154.34509163437923     
   45.056303757441150          5.5678184526194752          -3.1658898421848103          158.31901114765472     
   46.326641579985797          5.5676277061761219          -3.1568807218864197          162.30539780995528     
   47.604601429465710          5.5674385394445096          -3.1483549973851788          166.30487224193112     
   48.890229038042506          5.5672508482498122          -3.1402841992702077          170.31802936455463     
   50.183570412270761          5.5670645344205942          -3.1326419986410601          174.34544040579476     
   51.484671834744383          5.5668795053459670          -3.1254040160838463          178.38765473097516     
   52.793579865752847          5.5666956735706954          -3.1185476485180006          182.44520151251371     
   54.110341344947365          5.5665129564248810          -3.1120519122633015          186.51859125339038     
   55.435003393017048          5.5663312756851457          -3.1058973008322224          190.60831717746049     
   56.767613413375152          5.5661505572644705          -3.1000656560733715          194.71485649858514     
   58.108219093855404          5.5659707309281714          -3.0945400514276171          198.83867157951707     
   59.456868408418536          5.5657917300336264          -3.0893046861505202          202.98021099050470     
   60.813609618869044          5.5656134912916340          -3.0843447894730471          207.13991047670390     
   62.178491276582257          5.5654359545474410          -3.0796465337581380          211.31819384267465     
   63.551562224241749          5.5652590625797078          -3.0751969558003354          215.51547376150205     
   64.932871597587194          5.5650827609157405          -3.0709838854883795          219.73215251539662     
   66.322468827172713          5.5649069976615735          -3.0669958811271796          223.96862267400948     
   67.720403640135743          5.5647317233455293          -3.0632221707801022          228.22526771613047     
   69.126726061976555          5.5645568907740746          -3.0596525990547061          232.50246259992190     
   70.541486418348413          5.5643824548988441          -3.0562775787975878          236.80057428635430     
   71.964735336858510          5.5642083726938605          -3.0530880472371580          241.11996222009822     
   73.396523748879659          5.5640346030420051          -3.0500754261292138          245.46097877171081     
   74.836902891372944          5.5638611066299637          -3.0472315855289831          249.82396964461606     
   76.285924308721178          5.5636878458508452          -3.0445488108277043          254.20927425003501     
   77.743639854573502          5.5635147847138500          -3.0420197727448470          258.61722605273911     
   79.210101693700949          5.5633418887603323          -3.0396374999855089          263.04815289022372     
   80.685362303863158          5.5631691249857180          -3.0373953543016761          267.50237726765010     
   82.169474477686336          5.5629964617667760          -3.0352870077304686          271.98021663069198     
   83.662491324552448          5.5628238687937763          -3.0333064217963628          276.48198361821602     
   85.164466272499766          5.5626513170071235          -3.0314478284835031          281.00798629653758     
   86.675453070134765          5.5624787785380958          -3.0297057128195872          285.55852837684546     
   88.195505788555579          5.5623062266533356          -3.0280747969015978          290.13390941721508     
   89.724678823286908          5.5621336357028017          -3.0265500252409687          294.73442501051920     
   91.263026896226634          5.5619609810708894          -3.0251265512943069          299.36036695940822     
   92.810605057603993          5.5617882391304700          -3.0237997250704134          304.01202343942595     
   94.367468687949611          5.5616153871996108          -3.0225650817146290          308.68967915122926     
   95.933673500077305          5.5614424035007834          -3.0214183309779847          313.39361546278843     
   97.509275541077770          5.5612692671223627          -3.0203553474944131          318.12411054236981     
   99.094331194324241          5.5610959579822330          -3.0193721617856926          322.88143948301934     
   100.68889718149019          5.5609224567933540          -3.0184649519331619          327.66587441920734     
   102.29303056457913          5.5607487450311588          -3.0176300358616999          332.47768463624277     
   103.90678874796660          5.5605748049026236          -3.0168638641738039          337.31713667299869     
   105.53022948045439          5.5604006193169075          -3.0161630134905009          342.18449441844962     
   107.16341085733713          5.5602261718574599          -3.0155241802598862          347.08001920248540     
   108.80639132248115          5.5600514467554811          -3.0149441749883352          352.00396988141739     
   110.45922967041604          5.5598764288646532          -3.0144199168626020          356.95660291856370     
   112.12198504843853          5.5597011036370700          -3.0139484287362572          361.93817246027709     
   113.79471695872917          5.5595254571002517          -3.0135268324405495          366.94893040773269     
   115.47748526048154          5.5593494758352309          -3.0131523444101234          371.98912648479455     
   117.17035017204444          5.5591731469555885          -3.0128222715867743          377.05900830223436     
   118.87337227307670          5.5589964580874236          -3.0125340075892959          382.15882141857219     
   120.58661250671516          5.5588193973501694          -3.0122850291276499          387.28880939778520     
   122.31013218175545          5.5586419533382259          -3.0120728926456950          392.44921386411761     
   124.04399297484598          5.5584641151033463          -3.0118952311740541          397.64027455420614     
   125.78825693269505          5.5582858721377555          -3.0117497513907372          402.86222936674272     
   127.54298647429123          5.5581072143579222          -3.0116342308593933          408.11531440985527     
   129.30824439313696          5.5579281320889811          -3.0115465154514056          413.39976404640885     
   131.08409385949579          5.5577486160497491          -3.0114845169298383          418.71581093740059     
   132.87059842265276          5.5575686573383081          -3.0114462106942801          424.06368608363033     
   134.66782201318867          5.5573882474181167          -3.0114296336731896          429.44361886581362     
   136.47582894526781          5.5572073781046232          -3.0114328823594461          434.85583708330557     
   138.29468391893943          5.5570260415523487          -3.0114541109793032          440.30056699159434     
   140.12445202245306          5.5568442302424188          -3.0114915297954545          445.77803333873271     
   141.96519873458777          5.5566619369705021          -3.0115434035310713          451.28845940086075     
   143.81698992699529          5.5564791548351398          -3.0116080499140963          456.83206701697856     
   145.67989186655726          5.5562958772264510          -3.0116838383401059          462.40907662313288     
   147.55397121775661          5.5561120978151601          -3.0117691886446742          468.01970728617204     
   149.43929504506315          5.5559278105419567          -3.0118625699857033          473.66417673723242     
   151.33593081533354          5.5557430096071405          -3.0119624998316619          479.34270140511882     
   153.24394640022555          5.5555576894605325          -3.0120675430533383          485.05549644974417     
   155.16341007862690          5.5553718447916491          -3.0121763111191138          490.80277579580195     
   157.09439053909867          5.5551854705200920          -3.0122874613896826          496.58475216684326     
   159.03695688233327          5.5549985617861424          -3.0123996965079214          502.40163711993114     
   160.99117862362726          5.5548111139415424          -3.0125117638920353          508.25364108106606     
   162.95712569536903          5.5546231225404386          -3.0126224553214636          514.14097338156580     
   164.93486844954126          5.5544345833304707          -3.0127306066217505          520.06384229560058     
   166.92447766023849          5.5542454922439610          -3.0128350974400320          526.02245507907833     
   168.92602452619994          5.5540558453892341          -3.0129348511240281          532.01701801010540     
   170.93958067335714          5.5538656390419803          -3.0130288346892531          538.04773643122905     
   172.96521815739729          5.5536748696366951          -3.0131160588868733          544.11481479369877     
   175.00300946634167          5.5534835337581514          -3.0131955783676609          550.21845670398432     
   177.05302752313972          5.5532916281328664          -3.0132664919375154          556.35886497278796     
   179.11534568827855          5.5530991496205786          -3.0133279429184086          562.53624166682482     
   181.19003776240822          5.5529060952056808          -3.0133791196016064          568.75078816362930     
   183.27717798898269          5.5527124619885910          -3.0134192558012969          575.00270520967001     
   185.37684105691659          5.5525182471770718          -3.0134476315119687          581.29219298207408     
   187.48910210325809          5.5523234480774022          -3.0134635736604611          587.61945115425306     
   189.61403671587763          5.5521280620854716          -3.0134664569663014          593.98467896575971     
   191.75172093617289          5.5519320866776880          -3.0134557048998230          600.38807529669714     
   193.90223126178992          5.5517355194017259          -3.0134307907473805          606.82983874702973     
   196.06564464936065          5.5515383578670781          -3.0133912387829436          613.31016772115640     
   198.24203851725682          5.5513405997353757          -3.0133366255436798          619.82926051811478     
   200.43149074836035          5.5511422427104593          -3.0132665812116852          626.38731542780033     
   202.63407969285052          5.5509432845281790          -3.0131807911066288          632.98453083360710     
   204.84988417100763          5.5507437229458825          -3.0130789972847829          639.62110532190206     
   207.07898347603367          5.5505435557315890          -3.0129610002499279          646.29723779876861     
   209.32145737688987          5.5503427806527927          -3.0128266607711183          653.01312761445740     
   211.57738612115119          5.5501413954649008          -3.0126759018147129          659.76897469601533     
   213.84685043787809          5.5499393978992400          -3.0125087105803954          666.56497968855126     
   216.12993154050537          5.5497367856506541          -3.0123251406574427          673.40134410565270     
   218.42671112974841          5.5495335563646142          -3.0121253142818643          680.27827048943482     
   220.73727139652689          5.5493297076238530          -3.0119094247094931          687.19596258075626     
   223.06169502490604          5.5491252369344704          -3.0116777386964002          694.15462550012944     
   225.40006519505548          5.5489201417115019          -3.0114305990880896          701.15446593987383     
   227.75246558622581          5.5487144192639066          -3.0111684275148178          708.19569236807024     
   230.11898037974316          5.5485080667789610          -3.0108917271949784          715.27851524489517     
   232.49969426202162          5.5483010813060192          -3.0106010858410230          722.40314725191740     
   234.89469242759375          5.5480934597396274          -3.0102971786677126          729.56980353495533     
   237.30406058215931          5.5478851988019509          -3.0099807715012314          736.77870196110814     
   239.72788494565228          5.5476762950244982          -3.0096527239812958          744.03006339057015     
   242.16625225532619          5.5474667447291202          -3.0093139928646266          751.32411196387568     
   244.61924976885814          5.5472565440082402          -3.0089656354103944          758.66107540519261     
   247.08696526747130          5.5470456887043245          -3.0086088128589115          766.04118534232589     
   249.56948705907612          5.5468341743885317          -3.0082447939901513          773.46467764407771     
   252.06690398143058          5.5466219963385504          -3.0078749587618709          780.93179277562649     
   254.57930540531916          5.5464091495155863          -3.0075008020199254          788.44277617258570     
   257.10678123775108          5.5461956285404836          -3.0071239372783776          795.99787863441338     
   259.64942192517759          5.5459814276689627          -3.0067461005610392          803.59735673784030     
   262.20731845672867          5.5457665407659640          -3.0063691543044428          811.24147327099877     
   264.78056236746903          5.5455509612790470          -3.0059950913026432          818.93049768890137     
   267.36924574167386          5.5453346822108900          -3.0056260387086646          826.66470659097115     
   269.97346121612389          5.5451176960908191          -3.0052642620639118          834.44438422126791     
   272.59330198342064          5.5448999949453768          -3.0049121693610412          842.26982299208123     
   275.22886179532117          5.5446815702679384          -3.0045723151340762          850.14132403156066     
   277.88023496609310          5.5444624129873290          -3.0042474045575949          858.05919775601910     
   280.54751637588964          5.5442425134354698          -3.0039402975585849          866.02376446756659     
   283.23080147414498          5.5440218613140235          -3.0036540129246978          874.03535497770145     
   285.93018628298984          5.5438004456600485          -3.0033917324069996          882.09431125749245     
   288.64576740068776          5.5435782548106607          -3.0031568048011938          890.20098711495189     
   291.37764200509190          5.5433552763666949          -3.0029527500073225          898.35574890021087     
   294.12590785712246          5.5431314971553807          -3.0027832630507292          906.55897623906890     
   296.89066330426522          5.5429069031920175          -3.0026522180604553          914.81106279548828     
