 #              _____________________  _______________________             #
 #              ___  __ \__  __ \_  / / /_  /___  ____/_  ___/             #
 #              __  / / /_  /_/ /  / / /_  __/_  __/  _____ \              #
 #              _  /_/ /_  _, _// /_/ / / /_ _  /___  ____/ /              #
 #              /_____/ /_/ |_| \____/  \__/ /_____/  /____/               #
 #                                                                         #
  
 #        time                      T            heat flux [W.L-2]   in    x              directions   cumulative flux
 #-----------------------------------------------------------------------------------------------

   0.0000000000000000          10.000000000000000          -0.0000000000000000          0.0000000000000000     
   1.0000000000000000          10.000000000000000          -3.3892888495756747E-012     0.0000000000000000     
   2.0060000000000002          9.9999999999999964          -4.0106584719978823E-011     4.0106584719978823E-011
   3.0180360000000004          9.9999999999999734          -2.3612045652043874E-010     2.7764376397954016E-010
   4.0361442160000003          9.9999999999998757          -9.9136698850088537E-010     1.2809428455540221E-009
   5.0603610812960005          9.9999999999995417          -3.3565257240297826E-009     4.6982492624040921E-009
   6.0907232477837763          9.9999999999985700          -9.7430756795802567E-009     1.4677271693285477E-008
   7.1272675872704792          9.9999999999960547          -2.5136660752878343E-008     4.0577135924889456E-008
   8.1700311927941023          9.9999999999901288          -5.9051014744683986E-008     1.0178613099943746E-007
   9.2190513799508675          9.9999999999771934          -1.2850375696872099E-007     2.3578517193947233E-007
   10.274365688230573          9.9999999999507079          -2.6234677363849323E-007     5.1099223352169791E-007
   11.336011882359955          9.9999999998993445          -5.0734208301164964E-007     1.0463975929163217E-006
   12.404027953654115          9.9999999998042792          -9.3641644838319643E-007     2.0405405514624965E-006
   13.478452121376039          9.9999999996353282          -1.6595754530627873E-006     3.8129938068588393E-006
   14.559322834104295          9.9999999993456186          -2.8380102854485693E-006     6.8622206457881798E-006
   15.646678771108920          9.9999999988643360          -4.7019270930213577E-006     1.1944395934018471E-005
   16.740558843735574          9.9999999980871230          -7.5726937254528309E-006     2.0178609415507284E-005
   17.841002196797987          9.9999999968635720          -1.1889866488777821E-005     3.3184697433772775E-005
   18.948048209978776          9.9999999949812182          -1.8243710371914454E-005     5.3260867247741843E-005
   20.061736499238648          9.9999999921453320          -2.7413770848432655E-005     8.3609172971750914E-005
   21.182106918234080          9.9999999879537995          -4.0414071173155161E-005     1.2861785075860880E-004
   22.309199559743483          9.9999999818662513          -5.8545463337779137E-005     1.9421045604863809E-004
   23.443054757101944          9.9999999731666005          -8.3455630346112092E-005     2.8827268290426998E-004
   24.583713085644554          9.9999999609180108          -1.1720716347005022E-004     4.2116863437242913E-004
   25.731215364158420          9.9999999439093745          -1.6235413023909763E-004     6.0635922520294776E-004
   26.885602656343369          9.9999999205922361          -2.2202742068814583E-004     8.6113619633515200E-004
   28.046916272281429          9.9999998890070803          -3.0002912267095699E-004     1.2074860028319042E-003
   29.215197769915118          9.9999998466979498          -4.0093608723067127E-004     1.6730985400538125E-003
   30.390488956534607          9.9999997906142291          -5.3021276254599766E-004     2.2925363003455457E-003
   31.572831890273815          9.9999997169984969          -6.9433325295740155E-004     3.1085800531232212E-003
   32.762268881615455          9.9999996212593327          -9.0091252399013093E-004     4.1737676097801067E-003
   33.958842494905149          9.9999994978279521          -1.1588465065212087E-003     5.5521425119234667E-003
   35.162595549874581          9.9999993399976344          -1.4784608289477072E-003     7.3212297281246988E-003
   36.373571123173825          9.9999991397448422          -1.8716677401386034E-003     9.5742554882042724E-003
   37.591812549912866          9.9999988875310901          -2.3521307548841673E-003     1.2422628377574917E-002
   38.817363425212342          9.9999985720845803          -2.9354364016039060E-003     1.5998698607566583E-002
   40.050267605763615          9.9999981801607980          -3.6392724306088019E-003     2.0458812120352457E-002
   41.290569211398200          9.9999976962812216          -4.4836116892607069E-003     2.5986675716010543E-002
   42.538312626666588          9.9999971024494805          -5.4909008443874922E-003     3.2797048849684630E-002
   43.793542502426590          9.9999963778444059          -6.6862530554890037E-003     4.1139777072489184E-002
   45.056303757441150          9.9999954984894224          -8.0976435983310495E-003     5.1304181240371019E-002
   46.326641579985797          9.9999944368979641          -9.7561074413494327E-003     6.3623815717066309E-002
   47.604601429465710          9.9999931616946753          -1.1695937699332897E-002     7.8481607746654705E-002
   48.890229038042506          9.9999916372122684          -1.3954883846488186E-002     9.6315389006622440E-002
   50.183570412270761          9.9999898230640856          -1.6574348562517757E-002    0.11762382911277036     
   51.484671834744383          9.9999876736925160          -1.9599582051448336E-002    0.14297277949748999     
   52.793579865752847          9.9999851378935869          -2.3079872670689536E-002    0.17300203465983427     
   54.110341344947365          9.9999821583182040          -2.7068732705542966E-002    0.20843251628734100     
   55.435003393017048          9.9999786709505916          -3.1624078126077308E-002    0.25007388417879750     
   56.767613413375152          9.9999746045647342          -3.6808401200567858E-002    0.29883257629931237     
   58.108219093855404          9.9999698801596715          -4.2688934840264349E-002    0.35572027862586275     
   59.456868408418536          9.9999644103746732          -4.9337807600525953E-002    0.42186282375756956     
   60.813609618869044          9.9999580988854948          -5.6832188318721409E-002    0.49850951557873607     
   62.178491276582257          9.9999508397829526          -6.5254419373246553E-002    0.58704287550643985     
   63.551562224241749          9.9999425169353184          -7.4692137521463114E-002    0.68898880398487783     
   64.932871597587194          9.9999330033359080          -8.5238382039211344E-002    0.80602714998841973     
   66.322468827172713          9.9999221604377659          -9.6991688339035403E-002    0.94000267822772998     
   67.720403640135743          9.9999098374769684         -0.11005616721569472          1.0929364232894605     
   69.126726061976555          9.9998958707865206         -0.12454156870557478          1.2670374178440114     
   70.541486418348413          9.9998800831027328         -0.14056333004144647          1.4647147805699081     
   71.964735336858510          9.9998622828660793         -0.15824260722695324          1.6885901479635246     
   73.396523748879659          9.9998422635186444         -0.17770628982807443          1.9415104327737722     
   74.836902891372944          9.9998198028002463         -0.19908699867258442          2.2265608904572489     
   76.285924308721178          9.9997946620453995         -0.22252306622026255          2.5470784737645658     
   77.743639854573502          9.9997665854833517         -0.24815849948015287          2.9066654544083086     
   79.210101693700949          9.9997352995433726         -0.27614292541274055          3.3092032896596000     
   80.685362303863158          9.9997005121675446         -0.30663151884981116          3.7588667107265348     
   82.169474477686336          9.9996619121332664         -0.33978491306135139          4.2601380088933363     
   83.662491324552448          9.9996191683876852         -0.37576909315025364          4.8178214945841233     
   85.164466272499766          9.9995719293962395         -0.41475527256403755          5.4370581038487797     
   86.675453070134765          9.9995198225074944         -0.45691975308059063          6.1233401261980998     
   88.195505788555579          9.9994624533363101         -0.50244376867406715          6.8825260272185886     
   89.724678823286908          9.9993994051674875         -0.55151331377836343          7.7208553390726582     
   91.263026896226634          9.9993302383818037         -0.60431895647801781          8.6449635916958218     
   92.810605057603993          9.9992544899064182         -0.66105563726934591          9.6618972573950597     
   94.367468687949611          9.9991716726914461         -0.72192245404310351          10.779128681480117     
   95.933673500077305          9.9990812752144933         -0.78712243401395587          12.004570971625569     
   97.509275541077770          9.9989827610147763         -0.85686229336439956          13.346592818823666     
   99.094331194324241          9.9988755682584376         -0.93135218535383246          14.814033222957407     
   100.68889718149019          9.9987591093365022          -1.0108054376044866          16.416216096164668     
   102.29303056457913          9.9986327704969149          -1.0954382791996733          18.162964717216060     
   103.90678874796660          9.9984959115119931          -1.1854695581444947          20.064616010071340     
   105.53022948045439          9.9983478653826090          -1.2811204496809847          22.132034619649069     
   107.16341085733713          9.9981879380803242          -1.3826141558259286          24.376626757531117     
   108.80639132248115          9.9980154083287829          -1.4901755965080905          26.810353790033240     
   110.45922967041604          9.9978295274254982          -1.6040310925589749          29.445745540591261     
   112.12198504843853          9.9976295191052742          -1.7244080408496827          32.295913277994885     
   113.79471695872917          9.9974145794464242          -1.8515345818308071          35.374562361528696     
   115.47748526048154          9.9971838768209356          -1.9856392597408055          38.696004513623009     
   117.17035017204444          9.9969365518897373          -2.1269506758194363          42.275169690282752     
   118.87337227307670          9.9966717176441193          -2.2756971348532651          46.127617519220045     
   120.58661250671516          9.9963884594944012          -2.4321062855141040          50.269548275510054     
   122.31013218175545          9.9960858354067934          -2.5964047549676303          54.717813364530805     
   124.04399297484598          9.9957628760894117          -2.7688177783531494          59.489925282123806     
   125.78825693269505          9.9954185852282222          -2.9495688237987192          64.604067022230566     
   127.54298647429123          9.9950519397736848          -3.1388792137516632          70.079100902819235     
   129.30824439313696          9.9946618902786675          -3.3369677434779352          75.934576781653476     
   131.08409385949579          9.9942473612880942          -3.5440502976719142          82.190739634406455     
   132.87059842265276          9.9938072517806518          -3.7603394662182050          88.868536468818064     
   134.66782201318867          9.9933404356626934          -3.9860441601989809          95.989622549958753     
   136.47582894526781          9.9928457623143299          -4.2213692293279781          103.57636691326941     
   138.29468391893943          9.9923220571874563          -4.4665150820210577          111.65185714379948     
   140.12445202245306          9.9917681224553405          -4.7216773093838622          120.23990340204469     
   141.96519873458777          9.9911827377131335          -4.9870463143971078          129.36504167887375     
   143.81698992699529          9.9905646607285146          -5.2628069476303452          139.05253626432406     
   145.67989186655726          9.9899126282413953          -5.5491381507771536          149.32838141738580     
   147.55397121775661          9.9892253568115290          -5.8462126093403519          160.21930222641760     
   149.43929504506315          9.9885015437125109          -6.1541964157167355          171.75275465233733     
   151.33593081533354          9.9877398678705802          -6.4732487439596582          183.95692474940660     
   153.24394640022555          9.9869389908464061          -6.8035215373961080          196.86072706103698     
   155.16341007862690          9.9860975578578142          -7.1451592102314470          210.49380219069320     
   157.09439053909867          9.9852141988412981          -7.4982983642281260          224.88651355064536     
   159.03695688233327          9.9842875295499738          -7.8630675214463626          240.06994329392842     
   160.99117862362726          9.9833161526854717          -8.2395868739387925          256.07588743739944     
   162.95712569536903          9.9822986590611649          -8.6279680512414068          272.93685018632544     
   164.93486844954126          9.9812336287939800          -9.0283139063573223          290.68603747329405     
   166.92447766023849          9.9801196325219639          -9.4407183208718077          309.35734972657912     
   168.92602452619994          9.9789552326446831          -9.8652660297098453          328.98537388526847     
   170.93958067335714          9.9777389845834321          -10.302032465944780          349.60537468051314     
   172.96521815739729          9.9764694380582650          -10.751083625983517          371.25328520421334     
   175.00300946634167          9.9751451383787444          -11.212475955330619          393.96569678822982     
   177.05302752313972          9.9737646277453056          -11.686256255031429          417.77984821882978     
   179.11534568827855          9.9723264465581760          -12.172461608821465          442.73361431259480     
   181.19003776240822          9.9708291347307334          -12.671119330889026          468.86549388132909     
   183.27717798898269          9.9692712330043030          -13.182246934099798          496.21459711472608     
   185.37684105691659          9.9676512842613363          -13.705852118421463          524.82063241056414     
   187.48910210325809          9.9659678348340286          -14.241932779235594          554.72389268312224     
   189.61403671587763          9.9642194358055107          -14.790477035158448          585.96524118129594     
   191.75172093617289          9.9624046443007614          -15.351463274926957          618.58609684854605     
   193.90223126178992          9.9605220247645150          -15.924860222866394          652.62841925737530     
   196.06564464936065          9.9585701502234887          -16.510627022416934          688.13469315149462     
   198.24203851725682          9.9565476035303764          -17.108713337179729          725.14791262925928     
   200.43149074836035          9.9544529785871294          -17.719059468925227          763.71156500231564     
   202.63407969285052          9.9522848815450775          -18.341596491971224          803.86961436366289     
   204.84988417100763          9.9500419319796567          -18.976246403419122          845.66648489975501     
   207.07898347603367          9.9477227640374331          -19.622922288644677          889.14704398146273     
   209.32145737688987          9.9453260275533086          -20.281528501564367          934.35658506916582     
   211.57738612115119          9.9428503891358115          -20.951960859154998          981.34081046758160     
   213.84685043787809          9.9402945332184274          -21.634106849780476          1030.1458139664226     
   216.12993154050537          9.9376571630749861          -22.327845854896591          1080.8180634034891     
   218.42671112974841          9.9349370017971825          -23.033049383757618          1133.4043831874267     
   220.73727139652689          9.9321327932323022          -23.749581320791812          1187.9519368180888     
   223.06169502490604          9.9292433028792644          -24.477298185356393          1244.5082094432626     
   225.40006519505548          9.9262673187411252          -25.216049403609773          1303.1209904913894     
   227.75246558622581          9.9232036521321376          -25.965677592313895          1363.8383564209739     
   230.11898037974316          9.9200511384375396          -26.726018854369762          1426.7086536284191     
   232.49969426202162          9.9168086378241291          -27.496903085952365          1491.7804815572383     
   234.89469242759375          9.9134750358998005          -28.278154295140478          1559.1026760528914     
   237.30406058215931          9.9100492443200601          -29.069590931928513          1628.7242930087923     
   239.72788494565228          9.9065302013396348          -29.871026229570671          1700.6945923505125     
   242.16625225532619          9.9029168723071646          -30.682268557178389          1775.0630224066354     
   244.61924976885814          9.8992082501010330          -31.503121783549613          1851.8792047163188     
   247.08696526747130          9.8954033555042962          -32.333385652181875          1931.1929193251908     
   249.56948705907612          9.8915012375166427          -33.172856167457347          2013.0540906228900     
   252.06690398143058          9.8875009736013109          -34.021325991992931          2097.5127737773041     
   254.57930540531916          9.8834016698648508          -34.878584855165705          2184.6191418223707     
   257.10678123775108          9.8792024611675533          -35.744419972847304          2274.4234734582237     
   259.64942192517759          9.8749025111623112          -36.618616478394941          2366.9761416244601     
   262.20731845672867          9.8705010122596857          -37.500957864997439          2462.3276029094695     
   264.78056236746903          9.8659971855168216          -38.391226439506958          2560.5283878610758     
   267.36924574167386          9.8613902804477878          -39.289203787931811          2661.6290922662088     
   269.97346121612389          9.8566795747528708          -40.194671252843968          2765.6803694700743     
   272.59330198342064          9.8518643739641902          -41.107410423015011          2872.7329238082589     
   275.22886179532117          9.8469440110049256          -42.027203635687812          2982.8375052285155     
   277.88023496609310          9.8419178456592338          -42.953834491976771          3096.0449051825958     
   280.54751637588964          9.8367852639507873          -43.887088382245523          3212.4059538625779     
   283.23080147414498          9.8315456774296344          -44.826753013833354          3331.9715188379173     
   285.93018628298984          9.8261985223700066          -45.772618929551022          3454.7925051197017     
   288.64576740068776          9.8207432588850754          -46.724480002793300          3580.9198566404179     
   291.37764200509190          9.8151793699682095          -47.682133894232145          3710.4045590951396     
   294.12590785712246          9.8095063604737280          -48.645382455613600          3843.2976440471566     
   296.89066330426522          9.8037237560529711          -49.614032067907502          3979.6501941609354     
