 #              _____________________  _______________________             #
 #              ___  __ \__  __ \_  / / /_  /___  ____/_  ___/             #
 #              __  / / /_  /_/ /  / / /_  __/_  __/  _____ \              #
 #              _  /_/ /_  _, _// /_/ / / /_ _  /___  ____/ /              #
 #              /_____/ /_/ |_| \____/  \__/ /_____/  /____/               #
 #                                                                         #
  
 #        time                      T            heat flux [W.L-2]   in    x              directions   cumulative flux
 #-----------------------------------------------------------------------------------------------

   0.0000000000000000          10.000000000000000          -0.0000000000000000          0.0000000000000000     
   1.0000000000000000          9.4274556195231192          -176.56559877024156          0.0000000000000000     
   2.0060000000000002          8.9010559920585717          -333.67326348796394          333.67326348796394     
   3.0180360000000004          8.4163777838802627          -473.35412301036189          809.86751123638805     
   4.0361442160000003          7.9694270449916527          -597.43620456569863          1414.4944579602393     
   5.0603610812960005          7.5565989411923846          -707.56322632817057          2134.8703920244170     
   6.0907232477837763          7.1746409975645449          -805.21196124466280          2959.5820628692700     
   7.1272675872704792          6.8206195912042817          -891.70819686986511          3878.3644524710126     
   8.1700311927941023          6.4918894417276167          -968.24134706553195          4881.9895400287696     
   9.2190513799508675          6.1860658608047236          -1035.8777888277459          5962.1651979886283     
   10.274365688230573          5.9009995357736891          -1095.5730061721156          7111.4433979672003     
   11.336011882359955          5.6347536366102409          -1148.1826261212639          8323.1369518311367     
   12.404027953654115          5.3855830497517942          -1194.4724314681628          9591.2440626917814     
   13.478452121376039          5.1519155562046866          -1235.1274324762928          10910.380010672754     
   14.559322834104295          4.9323347848153212          -1270.7600758985775          12275.715347594332     
   15.646678771108920          4.7255647844408557          -1301.9176652221790          13682.920022316535     
   16.740558843735574          4.5304560709439805          -1329.0890612463265          15128.112903870633     
   17.841002196797987          4.3459730164236934          -1352.7107272149647          16607.816212399390     
   18.948048209978776          4.1711824588681337          -1373.1721779076331          18118.914408188080     
   20.061736499238648          4.0052434204812837          -1390.8208874357522          19658.617126672394     
   21.182106918234080          3.8473978323087401          -1405.9667060539873          21224.425782293998     
   22.309199559743483          3.6969621714924354          -1418.8858321089469          22814.103496520580     
   23.443054757101944          3.5533199255487475          -1429.8243813245485          24425.648035362214     
   24.583713085644554          3.4159148055205257          -1439.0015919683008          26057.267469422572     
   25.731215364158420          3.2842446367343228          -1446.6127010516007          27707.358295052603     
   26.885602656343369          3.1578558622335233          -1452.8315235814568          29374.485778659098     
   28.046916272281429          3.0363385997897909          -1457.8127639895347          31057.366307793636     
   29.215197769915118          2.9193221987525280          -1461.6940862041604          32754.851552438668     
   30.390488956534607          2.8064712479110350          -1464.5979663881669          34465.914258041892     
   31.572831890273815          2.6974819900477911          -1466.6333501263357          36189.635508447594     
   32.762268881615455          2.5920791029833787          -1467.8971337967059          37925.193312048163     
   33.958842494905149          2.4900128106821935          -1468.4754879868369          39671.852378338175     
   35.162595549874581          2.3910562914299258          -1468.4450391061230          41428.954964698714     
   36.373571123173825          2.2950033532339003          -1467.8739237861530          43195.912684766263     
   37.591812549912866          2.2016663494594395          -1466.8227292411734          44972.199180237461     
   38.817363425212342          2.1108743103214791          -1465.3453314688513          46757.343567511474     
   40.050267605763615          2.0224712682214232          -1463.4896419974857          48550.924579253209     
   41.290569211398200          1.9363147570739547          -1461.2982728198435          50352.565328845150     
   42.538312626666588          1.8522744677250955          -1458.8091281869190          52161.928632849769     
   43.793542502426590          1.7702310433379094          -1456.0559310587521          53978.712833090809     
   45.056303757441150          1.6900750002313134          -1453.0686912162244          55802.648065836896     
   46.326641579985797          1.6117057611147270          -1449.8741213203086          57633.492930888460     
   47.604601429465710          1.5350307889800177          -1446.4960065568873          59471.031518177464     
   48.890229038042506          1.4599648111045340          -1442.9555329199043          61315.070753833992     
   50.183570412270761          1.3864291236961903          -1439.2715786575948          63165.438031596103     
   51.484671834744383          1.3143509686839305          -1435.4609729306478          65021.979098977252     
   52.793579865752847          1.2436629750339336          -1431.5387253026443          66884.556170794604     
   54.110341344947365          1.1743026577623630          -1427.5182292975637          68753.046245533173     
   55.435003393017048          1.1062119685273089          -1423.4114429126375          70627.339602605221     
   56.767613413375152          1.0393368923231476          -1419.2290486635109          72507.338460887811     
   58.108219093855404         0.97362708537655662          -1414.9805954594030          74392.955781009281     
   59.456868408418536         0.90903554986098767          -1410.6746243554828          76284.114195729591     
   60.813609618869044         0.84551834151113980          -1406.3187800053038          78180.745054441009     
   62.178491276582257         0.78303430663595264          -1401.9199094353075          80082.787569322943     
   63.551562224241749         0.72154162309803271          -1397.4858751140575          81990.190407179427     
   64.932871597587194         0.66100775964169323          -1393.0202130756118          83902.905991255990     
   66.322468827172713         0.60139853286736344          -1388.5278987834654          85820.892592997247     
   67.720403640135743         0.54268174443760497          -1384.0133999894490          87744.113779331819     
   69.126726061976555         0.48482702296738517          -1379.4807314763591          89672.537917674330     
   70.541486418348413         0.42780568110879774          -1374.9335035948177          91606.137732319869     
   71.964735336858510         0.37159058622857982          -1370.3749653106456          93544.889906605837     
   73.396523748879659         0.31615604325088253          -1365.8080423970714          95488.774725839859     
   74.836902891372944         0.26147768839306873          -1361.2353713332409          97437.775756548101     
   76.285924308721178         0.20753239266082563          -1356.6593294057923          99391.879558093118     
   77.743639854573502         0.15429817409233351          -1352.0820614528277          101351.07542315063     
   79.210101693700949         0.10175411785121385          -1347.5055036386645          103315.35514392628     
   80.685362303863158          4.9880303365932022E-002     -1342.9314046025925          105284.71280134180     
   82.169474477686336         -1.3422621994778061E-003     -1376.1044533461504          107314.82549683217     
   83.662491324552448         -5.1931704780902588E-002     -1389.3298786173902          109376.74688314451     
   85.164466272499766        -0.10190533912435557          -1387.7132626647706          111448.62616292256     
   86.675453070134765        -0.15127971987800376          -1389.5993992288254          113535.76964824690     
   88.195505788555579        -0.20007068851851767          -1385.0952305755104          115628.63025511371     
   89.724678823286908        -0.24829341651570680          -1373.1251653022741          117715.85289536345     
   91.263026896226634        -0.29596244509624592          -1355.7788214182044          119789.07331013599     
   92.810605057603993        -0.34309172192893955          -1337.4643813098082          121846.55906374946     
   94.367468687949611        -0.38969463501986951          -1322.2443895727683          123892.83560505601     
   95.933673500077305        -0.43578404407546095          -1311.9286190367823          125935.32955764394     
   97.509275541077770        -0.48137230956455268          -1306.1993704179060          127981.10529719063     
   99.094331194324241        -0.48483046194916324          -1291.3895557900398          130015.82131702011     
   100.68889718149019        -0.48678262243354853          -1276.6745819088444          132039.42158043079     
   102.29303056457913        -0.48788139462305269          -1262.2297804155426          134052.13025626936     
   103.90678874796660        -0.48845248508227068          -1248.1294566830027          136054.29638415124     
   105.53022948045439        -0.48868055564876783          -1234.4046126602327          138046.32692944293     
   107.16341085733713        -0.49069313448640417          -1221.7159042492772          140029.71029192937     
   108.80639132248115        -0.49243968284453710          -1209.3683072485317          142004.82808911987     
   110.45922967041604        -0.49402160965074016          -1197.3723998151456          143972.08755151878     
   112.12198504843853        -0.49550649319543932          -1185.7293923006250          145931.90656138677     
   113.79471695872917        -0.49694084768481750          -1174.4350984112020          147884.70483740838     
   115.47748526048154        -0.49835760164945325          -1163.4822576119050          149830.89873677280     
   117.17035017204444        -0.49977686081282974          -1152.8605813877493          151770.89597947191     
   118.87337227307670        -0.50122047808226755          -1142.5617648567472          153705.09870049127     
   120.58661250671516        -0.50270215287670916          -1132.5758355904031          155633.90037959683     
   122.31013218175545        -0.50423277981566983          -1122.8929453383239          157557.68575161925     
   124.04399297484598        -0.50582133591143252          -1113.5035905377295          159476.83109813905     
   125.78825693269505        -0.50747550093187155          -1104.3987496064021          161391.70479001981     
   127.54298647429123        -0.50919904928471804          -1095.5688129756859          163302.66598383681     
   129.30824439313696        -0.51100139751102658          -1087.0071174225297          165210.06948470342     
   131.08409385949579        -0.51288847868383569          -1078.7064343588786          167114.26456006529     
   132.87059842265276        -0.51486610464666427          -1070.6601825736759          169015.59587394039     
   134.66782201318867        -0.51694009678498365          -1062.8624262984865          170914.40444853072     
   136.47582894526781        -0.51911638720204245          -1055.3078671877947          172811.02864271877     
   138.29468391893943        -0.52140109835790727          -1047.9910808126529          174705.80378158516     
   140.12445202245306        -0.52380060667993700          -1040.9094756658076          176599.06715854182     
   141.96519873458777        -0.52631853230946335          -1034.0576286482451          178491.15282463733     
   143.81698992699529        -0.52896499434946787          -1027.4338968492377          180382.39839219832     
   145.67989186655726        -0.53174736551528190          -1021.0359346596192          182273.14374313259     
   147.55397121775661        -0.53467342617480118          -1014.8619347260440          184163.73200972137     
   149.43929504506315        -0.53775137992133781          -1008.9106031041467          186054.51053820492     
   151.33593081533354        -0.54098986046323849          -1003.1811303954846          187945.83182644384     
   153.24394640022555        -0.54439519318167762          -997.67200730247430          189838.05224249116     
   155.16341007862690        -0.54797957049991941          -992.38442481522293          191731.53719124268     
   157.09439053909867        -0.55175282863676167          -987.31878281067748          193626.65973385121     
   159.03695688233327        -0.55572514775540660          -982.47477125682246          195523.79932005459     
   160.99117862362726        -0.55990699035190250          -977.85530121514842          197423.34811674868     
   162.95712569536903        -0.56430901944375023          -973.46046405048901          199325.70571988629     
   164.93486844954126        -0.56893954087255294          -969.29030565429571          201231.27915795502     
   166.92447766023849        -0.57381169638943841          -965.34688130986251          203140.48695772834     
   168.92602452619994        -0.57893601953863116          -961.63097711260343          205053.75680708338     
   170.93958067335714        -0.58432268718363867          -958.14299836383429          206971.52492260141     
   172.96521815739729        -0.58998132359930311          -954.88279788823218          208894.23505010392     
   175.00300946634167        -0.59591869409358655          -951.84744782648954          210822.33291950921     
   177.05302752313972        -0.60214473827333648          -949.03829853977163          212756.27491612892     
   179.11534568827855        -0.60866613957302207          -946.45132651429162          214696.51722536370     
   181.19003776240822        -0.61548819562215296          -944.08235272373406          216643.51541077287     
   183.27717798898269        -0.62261466088779882          -941.92578681204793          218597.72137509019     
   185.37684105691659        -0.63004590094293300          -939.97265935204575          220559.57612430400     
   187.48910210325809        -0.63778407536770720          -938.21732669955452          222529.51639487073     
   189.61403671587763        -0.64582800761552384          -936.64848112677407          224507.96249566975     
   191.75172093617289        -0.65417507095612148          -935.25451200041618          226495.31717982804     
   193.90223126178992        -0.66282004323788046          -934.02090052372978          228491.95892030359     
   196.06564464936065        -0.67175971661015099          -932.93651529326712          230498.24852958694     
   198.24203851725682        -0.68098913990470333          -931.98566050724639          232514.51878455229     
   200.43149074836035        -0.69050356670145319          -931.15336898552164          234541.07526688324     
   202.63407969285052        -0.70029788748144639          -930.42324693803107          236578.19252076233     
   204.84988417100763        -0.71037072637404930          -929.78320996370473          238626.12273980095     
   207.07898347603367        -0.72072159579513051          -929.21839094450934          240685.08901164174     
   209.32145737688987        -0.73135165872477093          -928.71575181195703          242755.28864857252     
   211.57738612115119        -0.74226724304105329          -928.26322801983395          244836.89471053152     
   213.84685043787809        -0.75347743517931420          -927.85297201486446          246930.06490054817     
   216.12993154050537        -0.76499465454924875          -927.47580097229991          249034.93813548252     
   218.42671112974841        -0.77683773140337342          -927.12501175579916          251151.63972959528     
   220.73727139652689        -0.78902976306661732          -926.79839531364223          253280.29136729485     
   223.06169502490604        -0.80159859318307813          -926.49308131418638          255421.00946842457     
   225.40006519505548        -0.81457974961059743          -926.20893166920530          257573.91139401228     
   227.75246558622581        -0.82801458392751015          -925.95040827977584          259739.12620777139     
   230.11898037974316        -0.84195087232933152          -925.72120838250817          261916.79314048507     
   232.49969426202162        -0.85644595457360095          -925.53102516510342          264107.07600339758     
   234.89469242759375        -0.87156446414123701          -925.38996915504435          266310.16474948626     
   237.30406058215931        -0.88738243061366695          -925.31173979794733          268526.28466888471     
   239.72788494565228        -0.90398543295528799          -925.31517699417554          270755.70958927064     
   242.16625225532619        -0.92147296739228413          -925.42083736683867          272998.76716136443     
   244.61924976885814        -0.93995699871613780          -925.65572203030342          275255.85581397574     
   247.08696526747130        -0.95956661608214688          -926.04976494509481          277527.45358479291     
   249.56948705907612        -0.98044684225943246          -926.64010926945093          279814.13774407370     
   252.06690398143058         -1.0027633905905904          -927.46809480957734          282116.59750045667     
   254.57930540531916         -1.0267013092145996          -928.58250594441438          284435.65516460454     
   257.10678123775108         -1.0524692202065480          -930.03889178588611          286772.28620059916     
   259.64942192517759         -1.0802968021940786          -931.89762651067883          289127.63492990559     
   262.20731845672867         -1.1104363409719293          -934.22634457614231          291503.03684489062     
   264.78056236746903         -1.1431594329290748          -937.09678349176477          293900.03345711186     
   267.36924574167386         -1.1787518711173621          -940.58296993449619          296320.38285704190     
   269.97346121612389         -1.2175051613405734          -944.75780774794816          298766.06168660917     
   272.59330198342064         -1.2597039513322799          -949.68832901980045          301239.25472894713     
   275.22886179532117         -1.3056089634138619          -955.42958831131443          303742.32811468665     
   277.88023496609310         -1.3554356305778239          -962.01722397645005          306277.78204855509     
   280.54751637588964         -1.3539073569506728          -953.62354941443266          308806.19394248881     
   283.23080147414498         -1.3491068472303291          -944.02599368060123          311324.17692579783     
   285.93018628298984         -1.3469092086013996          -935.88326511855644          313835.41854479699     
   288.64576740068776         -1.3433088965643392          -927.38444595456406          316338.78603016573     
   291.37764200509190         -1.3387075726591666          -918.71250228413282          318833.62435396155     
   294.12590785712246         -1.3334119385339875          -910.00082159218107          321319.63248845615     
   296.89066330426522         -1.3276752328902495          -901.35619460446310          323796.79893860378     
