 #              _____________________  _______________________             #
 #              ___  __ \__  __ \_  / / /_  /___  ____/_  ___/             #
 #              __  / / /_  /_/ /  / / /_  __/_  __/  _____ \              #
 #              _  /_/ /_  _, _// /_/ / / /_ _  /___  ____/ /              #
 #              /_____/ /_/ |_| \____/  \__/ /_____/  /____/               #
 #                                                                         #
  
 #        time                      T            heat flux [W.L-2]   in    x              directions   cumulative flux
 #-----------------------------------------------------------------------------------------------

   0.0000000000000000        10.000000000000000       -0.0000000000000000        0.0000000000000000     
   1.0000000000000000        9.4274556195231192       -176.56559877024213        176.56559877024213     
   1.9540000000000002        8.9268228575785731       -326.21858678896587        502.78418555920803     
   2.8641160000000001        8.4866162678494277       -453.71419706435529        956.49838262356332     
   3.8288389600000006        8.0564561600989109       -574.01002658813536        1530.5084092116986     
   4.8514452976000007        7.6372509786700205       -686.74125638408759        2217.2496655957862     
   5.9354080154560007        7.2297753673621896       -791.61925239327184        3008.8689179890580     
   7.0844084963833609        6.8346566279220111       -888.43734976985286        3897.3062677589110     
   8.3023490061663630        6.4523644068963950       -977.07484324310008        4874.3811110020106     
   9.5933659465363448        6.0832041517021880       -1057.4989375572127        5931.8800485592237     
   10.961843903328527        5.7273147559138806       -1129.7644800332050        7061.6445285924292     
   12.412430537528239        5.3846706560514592       -1194.0113830824525        8255.6559116748813     
   13.950052369779934        5.0550884533380165       -1250.4597446559396        9506.1156563308214     
   15.579931511966731        4.7382379232733456       -1299.4027839860960        10805.518440316917     
   17.307603402684734        4.4336570559762167       -1341.1978218198244        12146.716262136741     
   19.138935606845820        4.1407705562119057       -1376.2556406950616        13522.971902831803     
   21.080147743256571        3.8589110404451539       -1405.0286531292143        14928.000555961018     
   23.137832607851966        3.5873420157200790       -1427.9983755297092        16355.998931490727     
   25.318978564323086        3.3252816264549843       -1445.6627460075506        17801.661677498276     
   27.630993278182473        3.0719261215088207       -1458.5238299571190        19260.185507455393     
   30.081728874873424        2.8264720309902649       -1467.0764260429876        20727.261933498379     
   32.679508607365833        2.5881361495929305       -1471.7980183520322        22199.059951850410     
   35.433155123807786        2.3561725930797670       -1473.1404228059414        23672.200374656350     
   38.352020431236255        2.1298864125782959       -1471.5233557033346        25143.723730359685     
   41.446017657110431        1.9086434979119160       -1467.3300202463611        26611.053750606046     
   44.725654716537058        1.6918767534157566       -1460.9046752350794        28071.958425841127     
   48.202069999529286        1.4790887642533619       -1452.5520308045657        29524.510456645694     
   51.887070199501046        1.2698513673284211       -1442.5382195274490        30967.048676173144     
   55.793170411471110        1.0638026827699221       -1431.0930248528773        32398.141701026023     
   59.933636636159378       0.86064224100126863       -1418.4130163036677        33816.554717329687     
   64.322530834328944       0.66012485580740066       -1404.6652415596900        35221.219958889378     
   68.974758684388689       0.46205385230276663       -1389.9911551582718        36611.211114047648     
   73.906120205452012       0.26627417294902822       -1374.5105147807938        37985.721628828440     
   79.133363417779137        7.2665771042846883E-002  -1358.3250401071100        39344.046668935553     
   84.674241222845893      -0.11886242346586373       -1393.4073604150121        40737.454029350563     
   90.547571696216650      -0.30837780089735345       -1380.5239387889508        42117.977968139516     
   96.773301997989648      -0.49592857005393887       -1320.3080166686723        43438.285984808186     
   99.476364677492242      -0.56726205384596207       -1310.8169606943113        44749.102945502498     
   102.34161111776500      -0.54669334339530651       -1275.3582921779650        46024.461237680465     
   105.37877234445412      -0.53158809606636470       -1242.9244060739666        47267.385643754431     
   108.59816324474458      -0.52102194333209551       -1212.8745591953909        48480.260202949823     
   112.01071759905247      -0.51403701155356529       -1184.6725740817431        49664.932777031565     
   115.62802521461883      -0.50982870517956180       -1157.9342735635441        50822.867050595109     
   119.46237128711918      -0.50777637003692022       -1132.3953721260364        51955.262422721142     
   123.52677812396955      -0.50743311509383415       -1107.8816413024326        53063.144064023574     
   127.83504937103093      -0.50849732550444493       -1084.2846225603735        54147.428686583946     
   132.40181689291600      -0.51078558279190478       -1061.5456561958604        55208.974342779809     
   137.24259046611419      -0.51421265828745544       -1039.6467778579029        56248.621120637712     
   142.37381045370427      -0.51878006970911705       -1018.6070315133694        57267.228152151081     
   147.81290364054973      -0.52457372831436944       -998.48352737129471        58265.711679522377     
   153.57834241860593      -0.53177148570385879       -979.37736702337872        59245.089046545756     
   159.68970752334550      -0.54066200158968236       -961.44513928886499        60206.534185834622     
   166.16775453436946      -0.55167635986931018       -944.91662320179944        61151.450809036418     
   173.03448436605484      -0.56543103993689647       -930.11713727271217        62081.567946309129     
   180.31321798764137      -0.58276962497379625       -917.48458151345687        62999.052527822583     
   188.02867562652307      -0.60476093202667636       -907.54884308242163        63906.601370905002     
   196.20706072373767      -0.63256330138999373       -900.80356623839248        64807.404937143394     
   204.87614892678516      -0.66708009359615150       -897.40531884874770        65704.810255992139     
   214.06538242201549      -0.70863004571164923       -896.84669183868516        66601.656947830823     
   223.80596992695965      -0.75730315255922920       -898.07206114780729        67499.729008978626     
   234.13099268220046      -0.81425858265299556       -900.17565307084112        68399.904662049463     
   245.07551680275571      -0.88344161888821382       -903.14603697422308        69303.050699023690     
   256.67671237054429      -0.97412723161541948       -908.58111687813289        70211.631815901826     
   268.97397967240016       -1.1064714806902662       -921.13042731352459        71132.762243215344     
   282.00908301236740       -1.3230054824198749       -949.94938486130343        72082.711628076650     
   286.53670623455429       -1.4034106005130271       -959.77495581712708        73042.486583893769     
   291.33598685007240       -1.3866002687645604       -937.11623824976380        73979.602822143526     
   296.42322430252159       -1.3686012132388758       -914.68564981234897        74894.288471955879     
   301.81569600211776       -1.3501988882801681       -892.81425695705150        75787.102728912927     
   307.53171600368967       -1.3320437462259691       -871.77483662306736        76658.877565535993     
   313.59069720535592       -1.3146874624896236       -851.79991764029216        77510.677483176289     
   320.01321727912210       -1.2986161056006926       -833.09826202656268        78343.775745202845     
   326.82108855731428       -1.2842807985025015       -815.87017920361779        79159.645924406461     
   334.03743211219796       -1.2721269407941505       -800.32221327251204        79959.968137678967     
   341.68675628037471       -1.2626231405624389       -786.68165898099915        80746.649796659971     
   349.79503989864202       -1.2562906886477638       -775.21101464294020        81521.860811302904     
   358.38982053400537       -1.2537334478315882       -766.22167204606717        82288.082483348975     
   367.50028800749055       -1.2556658142200234       -760.08447103690287        83048.166954385873     
   377.15738352938484       -1.2629319090224989       -757.23160794546413        83805.398562331335     
   387.39390478259281       -1.2765013322517342       -758.13935151709984        84563.537913848428     
   398.24461731099325       -1.2974167674092529       -763.27537266062109        85326.813286509045     
   409.74637259109772       -1.3266658132032367       -772.99497447198735        86099.808260981037     
   421.93823318800844       -1.3649506091931849       -787.38332104725305        86887.191582028288     
   434.86160542073378       -1.4125297584912806       -806.13044451565315        87693.322026543945     
   448.56037998742266       -1.4692876099504928       -828.55103883573986        88521.873065379681     
   463.08108102811286       -1.5351885009045905       -853.79025854470660        89375.663323924382     
   478.47302413124447       -1.6111250008305544       -881.13221190322292        90256.795535827609     
   494.78848382056401       -1.7000566028826265       -910.22416871997723        91167.019704547580     
   512.08287109124274       -1.8086577751695334       -941.10335515377585        92108.123059701349     
   530.41492159816221       -1.9502054339651811       -973.95329507445160        93082.076354775796     
   549.84689513549677       -2.1495671243853733       -1008.4690058366755        94090.545360612465     
   570.44478708507143       -2.2037592343201280       -981.54051785379829        95072.085878466256     
   591.04267903464608       -2.2642481708829649       -977.29867704804838        96049.384555514305     
   612.87644450119524       -2.3749024732136381       -1003.8528018406979        97053.237357354999     
   636.02023589573730       -2.5191752072427303       -1046.1574842382920        98099.394841593297     
   660.55265477395187       -2.6704153240317159       -1102.8805178599364        99202.275359453241     
   686.55701878485934       -2.8050550136657924       -1149.4072022010619        100351.68256165431     
   714.12164463642125       -2.9122329279908552       -1178.1413992060136        101529.82396086032     
   743.34014803907689       -3.0005919542517652       -1195.0440556870763        102724.86801654739     
   774.31176164589192       -3.0744483889916374       -1200.1334486299058        103925.00146517729     
   807.14167206911577       -3.1433690393578062       -1194.7451357373632        105119.74660091466     
   841.94137711773305       -3.2187445182975272       -1181.8405165505972        106301.58711746526     
   878.82906446926745       -3.3133223486818686       -1162.6362816218907        107464.22339908715     
   917.93001306189387       -3.3654734161394773       -1161.2838066812665        108625.50720576842     
   957.03096165452030       -3.3952475086241281       -1155.5483200575113        109781.05552582593     
   998.47796716270432       -3.4248576964464634       -1144.3353912178961        110925.39091704383     
   1042.4117930013795       -3.4697828734819578       -1128.5892424088963        112053.98015945272     
   1088.9816483903751       -3.5404522940026841       -1109.4922942697074        113163.47245372242     
   1138.3456951027104       -3.6405263545360418       -1088.5738155690124        114252.04626929143     
   1190.6715846177858       -3.7747622419274136       -1064.4554039418515        115316.50167323329     
   1246.1370275037657       -3.8633987136412777       -1046.2340216847422        116362.73569491802     
   1301.6024703897456       -3.9743510237719755       -1021.5468881576537        117384.28258307568     
   1360.3958398488844       -4.1070808408260300       -997.81275607451732        118382.09533915020     
   1413.3098723621092       -4.2413601323371974       -968.99116063233851        119351.08649978254     
   1469.3987468261275       -4.3708154722454946       -947.78980332623098        120298.87630310877     
   1528.8529537579871       -4.4806557688678810       -929.58916675223918        121228.46546986101     
   1591.8744131057581       -4.5777750206209262       -913.37157560140827        122141.83704546242     
   1658.6771600143954       -4.6488026072350772       -900.27548280838607        123042.11252827081     
   1729.4880717375511       -4.6991539681221175       -890.99577639293022        123933.10830466374     
   1804.5476381640960       -4.7371785909882025       -883.95948298527526        124817.06778764901     
   1884.1107785762335       -4.7761156028213811       -877.64441526284429        125694.71220291185     
   1968.4477074130994       -4.8326581020261266       -869.68133414945078        126564.39353706130     
   2057.8448519801773       -4.9011703020498274       -859.14493433065866        127423.53847139196     
   2152.6058252212797       -4.9764767925973228       -847.24892619638081        128270.78739758834     
   2253.0524568568485       -5.0552045590277128       -834.52124800519766        129105.30864559354     
   2359.5258863905515       -5.1710814379809005       -819.05592388200887        129924.36456947555     
   2465.9993159242545       -5.2943665221428491       -798.89217262413115        130723.25674209968     
   2572.4727454579574       -5.4147251540939809       -778.47661672436061        131501.73335882404     
   2685.3345807636824       -5.5091045137879826       -760.04125157053545        132261.77461039458     
   2804.9681261877508       -5.5734267449348671       -746.19196421640356        133007.96657461100     
   2931.7796843372635       -5.6224392899527693       -736.36825219470416        133744.33482680569     
   3066.1999359757469       -5.6723788719070196       -728.26538146650239        134472.60020827220     
   3208.6854027125391       -5.7257080568490464       -719.81410764039356        135192.41431591258     
   3359.7199974535392       -5.7881411607768358       -710.60895382654212        135903.02326973912     
   3519.8166678789989       -5.8624573253104781       -699.76935688798892        136602.79262662711     
   3679.9133383044586       -5.9596699452316964       -686.37258366276944        137289.16521028988     
   3807.9906746448264       -6.0356971095918830       -670.17136788562539        137959.33657817551     
   3943.7526511656165       -6.1187602657724875       -657.28708984229343        138616.62366801780     
   4079.5146276864066       -6.1750941767185896       -644.62990940359725        139261.25357742139     
   4223.4223227984439       -6.2248007958324649       -635.61766647143361        139896.87124389282     
   4375.9644796172033       -6.2655431595320037       -627.78331263634539        140524.65455652916     
   4537.6591658450889       -6.3019010274806622       -621.20664197218355        141145.86119850134     
   4709.0555332466474       -6.3412891998671750       -615.11182079749881        141760.97301929884     
   4890.7356826922996       -6.3855560036307981       -608.42248169564641        142369.39550099449     
   5083.3166411046905       -6.4391920995328968       -600.81956725108262        142970.21506824557     
   5283.3166411046905       -6.5126770461617340       -591.28399441092211        143561.49906265648     
   5483.3166411046905       -6.5807004619486626       -579.14130062665095        144140.64036328314     
   5683.3166411046905       -6.6435498283613894       -567.95983169180852        144708.60019497495     
   5883.3166411046905       -6.6920020819655281       -557.87234283601686        145266.47253781097     
   6083.3166411046905       -6.7291030488046939       -550.09873094136697        145816.57126875233     
   6283.3166411046905       -6.7599644885487908       -544.09581479178746        146360.66708354413     
   6483.3166411046905       -6.7890713572802666       -538.99133122455919        146899.65841476870     
   6683.3166411046905       -6.8193189089949255       -534.09735499626731        147433.75576976498     
   6883.3166411046905       -6.8526025811335458       -528.95640920766323        147962.71217897264     
   7043.3166411046905       -6.8777732357285188       -523.44949247513171        148486.16167144777     
   7212.9166411046908       -6.9152355304072719       -518.85619696052197        149005.01786840829     
   7382.5166411046912       -6.9499458420472902       -512.71245754860797        149517.73032595689     
   7562.2926411046910       -6.9906723835875244       -506.78666679953903        150024.51699275643     
   7752.8552011046913       -7.0286434822295210       -500.14427863199887        150524.66127138844     
   7952.8552011046913       -7.0625683501068721       -493.97083437610991        151018.63210576455     
   8152.8552011046913       -7.0888439194247201       -488.53294238763027        151507.16504815218     
   8352.8552011046922       -7.1118973577839135       -484.23992260911029        151991.40497076130     
   8552.8552011046922       -7.1325501573095273       -480.46420236542122        152471.86917312673     
   8752.8552011046922       -7.1533749840644774       -477.01271178321696        152948.88188490996     
   8952.8552011046922       -7.1752191255794928       -473.50800935099568        153422.38989426097     
   9152.8552011046922       -7.1983881558632232       -469.82301425827575        153892.21290851923     
   9352.8552011046922       -7.2221101273290440       -465.93722510366172        154358.15013362290     
   9552.8552011046922       -7.2486469717257727       -461.90507582927273        154820.05520945217     
   9752.8552011046922       -7.2765204067504046       -457.43919544789082        155277.49440490006     
   9952.8552011046922       -7.3049692134833535       -452.77075728722463        155730.26516218728     
   10152.855201104692       -7.3314378993651950       -448.07792182717469        156178.34308401446     
   10352.855201104692       -7.3549583805550736       -443.74704936291533        156622.09013337738     
   10552.855201104692       -7.3752493740313030       -439.91528031530800        157062.00541369268     
   10752.855201104692       -7.3930500064458533       -436.60276546803868        157498.60817916071     
   10952.855201104692       -7.4092065513448784       -433.68104569890312        157932.28922485962     
   11152.855201104692       -7.4247440711383410       -431.00429631561246        158363.29352117522     
   11352.855201104692       -7.4404704023027319       -428.40767702525051        158791.70119820046     
   11552.855201104692       -7.4564964674230652       -425.77534898895385        159217.47654718941     
   11752.855201104692       -7.4727658953570693       -423.09644421522131        159640.57299140462     
   11952.855201104692       -7.4897211051422783       -420.36421433654766        160060.93720574118     
   12152.855201104692       -7.5077119305444269       -417.50775407882054        160478.44495982002     
   12352.855201104692       -7.5268279257203368       -414.47580237955810        160892.92076219956     
   12552.855201104692       -7.5463949249765623       -411.27440630046982        161304.19516850004     
