 #              _____________________  _______________________             #
 #              ___  __ \__  __ \_  / / /_  /___  ____/_  ___/             #
 #              __  / / /_  /_/ /  / / /_  __/_  __/  _____ \              #
 #              _  /_/ /_  _, _// /_/ / / /_ _  /___  ____/ /              #
 #              /_____/ /_/ |_| \____/  \__/ /_____/  /____/               #
 #                                                                         #
  
 #        time                      T            heat flux [W.L-2]   in    x              directions   cumulative flux
 #-----------------------------------------------------------------------------------------------

   0.0000000000000000        15.000000000000000       -0.0000000000000000        0.0000000000000000     
   1.0000000000000000        14.783040860632550       -90.208585854426644        90.208585854426644     
   1.9540000000000002        14.589135865671121       -168.37778138725133        258.58636724167798     
   2.8641160000000001        14.415046189559000       -236.44015025507619        495.02651749675420     
   3.8288389600000006        14.241548141838601       -302.03967272488944        797.06619022164364     
   4.8514452976000007        14.068914810863804       -364.97037038615701        1162.0365606078008     
   5.9354080154560007        13.897391602214407       -425.05093868922313        1587.0874992970239     
   7.0844084963833609        13.727191649820053       -482.12793511923257        2069.2154344162564     
   8.3023490061663630        13.558491815916673       -536.07843971409204        2605.2938741303483     
   9.5933659465363448        13.391429442388640       -586.81206970609855        3192.1059438364468     
   10.961843903328527        13.226099997852778       -634.27224716937837        3826.3781910058251     
   12.412430537528239        13.062555737058508       -678.43664290780043        4504.8148339136260     
   13.950052369779934        12.900805452391907       -719.31675079413856        5224.1315847077649     
   15.579931511966731        12.740815352858723       -756.95658312359569        5981.0881678313608     
   17.307603402684734        12.582511056071976       -791.43051740868350        6772.5186852400439     
   19.138935606845820        12.425780626408720       -822.84036600813681        7595.3590512481805     
   21.080147743256571        12.270478541119793       -851.31177924172482        8446.6708304899057     
   23.137832607851966        12.116430419569857       -876.99012720829398        9323.6609576981991     
   25.318978564323086        11.963438312706517       -900.03603250758385        10223.696990205783     
   27.630993278182473        11.811286323629954       -920.62074298781488        11144.317733193597     
   30.081728874873424        11.659746318257874       -938.92153873669918        12083.239271930295     
   32.679508607365833        11.508583488886812       -955.11736001399299        13038.356631944289     
   35.433155123807786        11.357561552868447       -969.38482304239335        14007.741454986683     
   38.352020431236255        11.206447402088244       -981.89476006770963        14989.636215054392     
   41.446017657110431        11.055015063506179       -992.80938148095493        15982.445596535346     
   44.725654716537058        10.903048882646290       -1002.2801144955121        16984.725711030860     
   48.202069999529286        10.750345895902388       -1010.4461287610312        17995.171839791892     
   51.887070199501046        10.596717409058353       -1017.4335182269633        19012.605358018856     
   55.793170411471110        10.441989844172964       -1023.3550739209795        20035.960431939835     
   59.933636636159378        10.286004951604003       -1028.3105565867304        21064.270988526565     
   64.322530834328944        10.128619506440938       -1032.3873626974469        22096.658351224010     
   68.974758684388689        9.9697046184788931       -1035.6614723558534        23132.319823579863     
   73.906120205452012        9.8091447830318916       -1038.1985719875879        24170.518395567451     
   79.133363417779137        9.6468367884467661       -1040.0552566144572        25210.573652181909     
   84.674241222845893        9.4826885779835504       -1041.2802333931140        26251.853885575023     
   90.547571696216650        9.3166181418831897       -1041.9154674173508        27293.769352992374     
   96.773301997989648        9.1485524928719553       -1041.9972301239247        28335.766583116299     
   103.37257611786903        8.9784267574356029       -1041.5570281263915        29377.323611242689     
   110.36780668494117        8.8061833975676524       -1040.6224046923476        30417.946015935038     
   117.78275108603765        8.6317715641879005       -1039.2176168101751        31457.163632745214     
   125.64259215119992        8.4551465741570659       -1037.3641978785838        32494.527830623800     
   133.97402368027193        8.2762694973600244       -1035.0814199376559        33529.609250561458     
   142.80534110108826        8.0951068379485385       -1032.3866707275222        34561.995921288981     
   152.16653756715357        7.9116302936596066       -1029.2957604666483        35591.291681755632     
   162.08940582118279        7.7258165783341486       -1025.8231717860526        36617.114853541687     
   172.60764617045376        7.5376472946717374       -1021.9822643037703        37639.097117845457     
   183.75698094068099        7.3471088463746810       -1017.7854432773397        38656.882561122795     
   195.57527579712186        7.1541923808458883       -1013.2442998767076        39670.126860999502     
   208.10266834494917        6.9588937553473773       -1008.3697289954567        40678.496589994960     
   221.38170444564611        6.7612135209463355       -1003.1720291964617        41681.668619191420     
   235.45748271238489        6.5611569196858266       -997.66098834828540        42679.329607539708     
   250.37780767512800        6.3587338912627622       -991.84595770629267        43671.175565245998     
   266.19335213563568        6.1539590861320699       -985.73591657719680        44656.911481823197     
   282.95782926377382        5.9468518824344665       -979.33952923238473        45636.251011055581     
   300.72817501960026        5.7374364045086583       -972.66519536768544        46608.916206423266     
   319.56474152077629        5.5257415410290420       -965.72109511855751        47574.637301541821     
   339.53150201202288        5.3118009610302659       -958.51522941136943        48533.152530953193     
   359.53150201202288        5.1079469910674575       -951.18791641556243        49484.340447368755     
   379.53150201202288        4.9132620132605513       -943.94962408700280        50428.290071455755     
   399.53150201202288        4.7268164010919609       -936.86713408552805        51365.157205541283     
   419.53150201202288        4.5478774380938916       -929.95840668305459        52295.115612224341     
   439.53150201202288        4.3758310397950737       -923.22560633466071        53218.341218558999     
   459.53150201202288        4.2101470065837461       -916.66544035536003        54135.006658914361     
   479.53150201202288        4.0503601612078182       -910.27262636519845        55045.279285279561     
   499.53150201202288        3.8960582472922010       -904.04116650965159        55949.320451789215     
   519.53150201202288        3.7468732572355568       -897.96486796149111        56847.285319750707     
   539.53150201202288        3.6024747972864648       -892.03757821082957        57739.322897961538     
   559.53150201202288        3.4625648121239840       -886.25329968752601        58625.576197649061     
   579.53150201202288        3.3268732884211816       -880.60624730903794        59506.182444958096     
   599.53150201202288        3.1951546981629164       -875.09087632859962        60381.273321286695     
   619.53150201202288        3.0671850187645004       -869.70189359667688        61250.975214883372     
   639.53150201202288        2.9427592127717879       -864.43425913330657        62115.409474016677     
   659.53150201202288        2.8216890796059166       -859.28318191892765        62974.692655935607     
   679.53150201202288        2.7038014122189149       -854.24411224205289        63828.936768177657     
   699.53150201202288        2.5889364061453599       -849.31273205780110        64678.249500235455     
   719.53150201202288        2.4769462792357100       -844.48494428453409        65522.734444519992     
   739.53150201202288        2.3676940685244787       -839.75686163851788        66362.491306158510     
   759.53150201202288        2.2610525769767373       -835.12479539656897        67197.616101555075     
   779.53150201202288        2.1569034477729505       -830.58524433878029        68028.201345893860     
   799.53150201202288        2.0551363476821733       -826.13488403130850        68854.336229925175     
   819.53150201202288        1.9556482441833651       -821.77055654700894        69676.106786472184     
   839.53150201202288        1.8583427635029617       -817.48926067938589        70493.596047151572     
   859.53150201202288        1.7631296187760082       -813.28814267654150        71306.884189828110     
   879.53150201202288        1.6699240992075155       -809.16448750226709        72116.048677330371     
   899.53150201202288        1.5786466124859571       -805.11571061832910        72921.164387948695     
   919.53150201202288        1.4892222738403087       -801.13935027339676        73722.303738222094     
   939.53150201202288        1.4015805360811326       -797.23306027858189        74519.536798500674     
   959.53150201202288        1.3156548557606014       -793.39460324631330        75312.931401746988     
   979.53150201202288        1.2313823912543007       -789.62184426753458        76102.553246014519     
   999.53150201202288        1.1487037291316025       -785.91274500159193        76888.465991016114     
   1019.5315020120229        1.0675626356595398       -782.26535815323837        77670.731349169349     
   1039.5315020120229       0.98790583069194071       -778.67782231178774        78449.409171481137     
   1059.5315020120229       0.90968278154299853       -775.14835712835747        79224.557528609497     
   1079.5315020120229       0.83284551474217638       -771.67525880824360        79996.232787417743     
   1099.5315020120229       0.75734844382322342       -768.25689589670424        80764.489683314445     
   1119.5315020120229       0.68314821152073335       -764.89170533770255        81529.381388652153     
   1139.5315020120229       0.61020354493849660       -761.57818878645412        82290.959577438611     
   1159.5315020120229       0.53847512241936502       -758.31490915787890        83049.274486596492     
   1179.5315020120229       0.46792545099021121       -755.10048739429851        83804.374973990794     
   1199.5315020120229       0.39851875338101050       -751.93359943688210        84556.308573427683     
   1219.5315020120229       0.33022086372668324       -748.81297338647016        85305.121546814160     
   1239.5315020120229       0.26299913115634266       -745.73738684043519        86050.858933654599     
   1259.5315020120229       0.19682233055892007       -742.70566439324398        86793.564598047844     
   1279.5315020120229       0.13166057988830293       -739.71667528928219        87533.281273337125     
   1299.5315020120229        6.7485263436554588E-002  -736.76933121737045        88270.050604554490     
   1319.5315020120229        4.2689605615844339E-003  -733.86258423718095        89003.913188791674     
   1339.5315020120229       -5.8014620593187849E-002  -826.32949132277633        89830.242680114447     
   1359.5315020120229      -0.11939070480421876       -752.01186554749836        90582.254545661941     
   1379.5315020120229      -0.17988350727498426       -749.10037857352370        91331.354924235464     
   1399.5315020120229      -0.17537799037113158       -749.70336776724912        92081.058292002708     
   1419.5315020120229      -0.17374751506142530       -746.48804927427329        92827.546341276975     
   1439.5315020120229      -0.17470552142205306       -740.71106562426348        93568.257406901233     
   1455.5315020120229      -0.26154416145438808       -838.41228591140623        94406.669692812633     
   1472.4915020120229      -0.26148732280480180       -836.70380604494710        95243.373498857574     
   1490.4691020120229      -0.26254383877199428       -834.79839161965617        96078.171890477228     
   1509.5253580120229      -0.26484657062774036       -832.85482940955160        96911.026719886780     
   1529.5253580120229      -0.26845209864599051       -831.02173101285268        97742.048450899631     
   1549.5253580120229      -0.27310536246999140       -829.50259995716681        98571.551050856797     
   1569.5253580120229      -0.27863801437698932       -828.39140250137689        99399.942453358177     
   1589.5253580120229      -0.28487703007647724       -827.77765422806590        100227.72010758624     
   1609.5253580120229      -0.29166123354490220       -827.73813051729906        101055.45823810354     
   1629.5253580120229      -0.29885260601542124       -828.32733132207932        101883.78556942563     
   1649.5253580120229      -0.30634121440739515       -829.57181092172254        102713.35738034736     
   1669.5253580120229      -0.31404378243566977       -831.49518650787320        103544.85256685523     
   1689.5253580120229      -0.32190299791041083       -834.05137062806295        104378.90393748329     
   1709.5253580120229      -0.32988288074332156       -837.18215990886324        105216.08609739215     
   1729.5253580120229      -0.33796419798302857       -840.82023722695840        106056.90633461911     
   1749.5253580120229      -0.34614063393069633       -844.89174476097992        106901.79807938010     
   1769.5253580120229      -0.35441578096619325       -849.31900780550893        107751.11708718560     
   1789.5253580120229      -0.36280092885534948       -854.02282177855955        108605.13990896416     
   1809.5253580120229      -0.37131356474145621       -863.25578015121550        109468.39568911538     
   1829.5253580120229      -0.37997641747201949       -913.83054527859224        110382.22623439397     
   1849.5253580120229      -0.38881712926227741       -949.87608967690107        111332.10232407086     
   1869.5253580120229      -0.39786836492184829       -975.68447882141697        112307.78680289228     
   1889.5253580120229      -0.40716831935604197       -994.14359588161926        113301.93039877390     
   1909.5253580120229      -0.41676164248192443       -1007.1736851739086        114309.10408394781     
   1929.5253580120229      -0.42670083354657024       -1016.0696961490937        115325.17378009690     
   1949.5253580120229      -0.43704820313454840       -1021.7239614708787        116346.89774156778     
   1969.5253580120229      -0.44787856590972797       -1024.7668285129464        117371.66457008073     
   1989.5253580120229      -0.45928292128775383       -1025.6565562442599        118397.32112632498     
   2009.5253580120229      -0.47137352074527455       -1024.7385562841405        119422.05968260912     
   2029.5253580120229      -0.48429094157539471       -1022.2862686563013        120444.34595126542     
   2049.5253580120229      -0.49821414380257079       -1018.5313258050431        121462.87727707047     
   2069.5253580120229      -0.51724160318755652       -908.06074491754691        122370.93802198801     
   2089.5253580120229      -0.55744823929980736       -916.99109359177999        123287.92911557980     
   2109.5253580120229      -0.62346663615681985       -941.91833880282741        124229.84745438263     
   2127.5253580120229      -0.58903001568044877       -987.47348163049810        125217.32093601313     
   2146.6053580120229      -0.55265629634630520       -1042.2528485381024        126259.57378455123     
   2166.6053580120229      -0.51862011885297277       -1105.4141160321326        127364.98790058336     
   2186.6053580120229      -0.49353834463919932       -1338.2109714024803        128703.19887198585     
   2206.6053580120229      -0.47736957039484629       -1421.8433848187947        130125.04225680465     
   2226.6053580120229      -0.46577979507802170       -1469.1966364534005        131594.23889325804     
   2246.6053580120229      -0.45581084481300382       -1464.5448440147122        133058.78373727275     
   2266.6053580120229      -0.44754157543046802       -1425.0467141980057        134483.83045147077     
   2286.6053580120229      -0.44092993766889088       -1389.7535530449618        135873.58400451572     
   2306.6053580120229      -0.43744957840606019       -1366.0463903079740        137239.63039482370     
   2326.6053580120229      -0.43601372737224026       -1350.0778580521778        138589.70825287589     
   2346.6053580120229      -0.43573798421276305       -1338.4934710681905        139928.20172394408     
   2366.6053580120229      -0.43607978319765994       -1329.1635674405788        141257.36529138466     
   2386.6053580120229      -0.43672435322443148       -1320.8575125845257        142578.22280396920     
   2406.6053580120229      -0.43749365413657049       -1312.9032642579355        143891.12606822714     
   2426.6053580120229      -0.43828654816754148       -1304.9440891014349        145196.07015732856     
   2446.6053580120229      -0.43904297841005219       -1296.7893352519866        146492.85949258055     
   2466.6053580120229      -0.43972351257885001       -1288.3294442118233        147781.18893679237     
   2486.6053580120229      -0.44029793405237644       -1279.4893113895544        149060.67824818194     
   2506.6053580120229      -0.44073897952691465       -1270.2031776285410        150330.88142581048     
   2526.6053580120229      -0.44101904999667529       -1260.4014455227846        151591.28287133327     
   2546.6053580120229      -0.44110883216195906       -1250.0044956700535        152841.28736700333     
   2566.6053580120229      -0.44097618070104000       -1238.9040806512987        154080.19144765462     
   2586.6053580120229      -0.44052946864569614       -1226.2162563787736        155306.40770403339     
   2606.6053580120229      -0.43974220020540117       -1212.0774501296357        156518.48515416303     
   2626.6053580120229      -0.43861192302960106       -1196.6487318815230        157715.13388604455     
   2646.6053580120229      -0.43715483479843031       -1180.0906087648150        158895.22449480937     
   2666.6053580120229      -0.43540193617990797       -1162.5490232651211        160057.77351807451     
   2686.6053580120229      -0.43339147107016907       -1144.1338136237630        161201.90733169828     
   2706.6053580120229      -0.43168056656575843       -1126.4258825648490        162328.33321426314     
   2726.6053580120229      -0.43015067350269837       -1108.9727038798112        163437.30591814296     
   2746.6053580120229      -0.42870572263709350       -1091.4986271965374        164528.80454533949     
   2766.6053580120229      -0.42733005218887171       -1074.0249900961503        165602.82953543565     
   2786.6053580120229      -0.42602607595816055       -1056.6386203318125        166659.46815576748     
   2806.6053580120229      -0.42480195826746625       -1039.4411464824759        167698.90930224996     
   2826.6053580120229      -0.42366713090002417       -1022.5294981529387        168721.43880040289     
   2846.6053580120229      -0.42263017783797735       -1005.9871025232538        169727.42590292613     
