 #              _____________________  _______________________             #
 #              ___  __ \__  __ \_  / / /_  /___  ____/_  ___/             #
 #              __  / / /_  /_/ /  / / /_  __/_  __/  _____ \              #
 #              _  /_/ /_  _, _// /_/ / / /_ _  /___  ____/ /              #
 #              /_____/ /_/ |_| \____/  \__/ /_____/  /____/               #
 #                                                                         #
  
 #        time                      T            heat flux [W.L-2]   in    x              directions   cumulative flux
 #-----------------------------------------------------------------------------------------------

   0.0000000000000000        20.000000000000000       -0.0000000000000000        0.0000000000000000     
   1.0000000000000000        19.140981250572679       -265.83015293321188        265.83015293321188     
   1.9540000000000002        18.390460946572233       -492.20335975744052        758.03351269065240     
   2.8641160000000001        17.731198244879494       -685.56419232312055        1443.5977050137731     
   3.8288389600000006        17.087768263057349       -868.22569623259119        2311.8234012463645     
   4.8514452976000007        16.461576951959604       -1039.4440535812273        3351.2674548275918     
   5.9354080154560007        15.853774381473730       -1198.6540366903405        4549.9214915179327     
   7.0844084963833609        15.265239746906722       -1345.4696392664714        5895.3911307844046     
   8.3023490061663630        14.696573546395220       -1479.6810276742870        7375.0721584586918     
   9.5933659465363448        14.148097270852798       -1601.2479089710412        8976.3200674297332     
   10.961843903328527        13.619860631622462       -1710.2894954819774        10686.609562911710     
   12.412430537528239        13.111656021675019       -1807.0713416803030        12493.680904592013     
   13.950052369779934        12.623039583441672       -1891.9894340928843        14385.670338684897     
   15.579931511966731        12.153357960342667       -1965.5520218665529        16351.222360551450     
   17.307603402684734        11.701779559024754       -2028.3597751004693        18379.582135651919     
   19.138935606845820        11.267328962104814       -2081.0849394701122        20460.667075122030     
   21.080147743256571        10.848923019907271       -2124.4502086624907        22585.117283784522     
   23.137832607851966        10.445407122380704       -2159.2080520807876        24744.325335865309     
   25.318978564323086        10.055590211337652       -2186.1212086472324        26930.446544512542     
   27.630993278182473        9.6782772343088190       -2205.9449869581026        29136.391531470646     
   30.081728874873424        9.3122979542587103       -2219.4119007791087        31355.803432249755     
   32.679508607365833        8.9565312980671248       -2227.2190246731448        33583.022456922903     
   35.433155123807786        8.6099247303742779       -2230.0182889353628        35813.040745858263     
   38.352020431236255        8.2715084546136826       -2228.4097599338997        38041.450505792163     
   41.446017657110431        7.9404045456199093       -2222.9377861721641        40264.388291964329     
   44.725654716537058        7.6158313855735100       -2214.0897456630141        42478.478037627341     
   48.202069999529286        7.2971039886771072       -2202.2970176657554        44680.775055293096     
   51.887070199501046        6.9836309471771365       -2187.9377287157963        46868.712784008894     
   55.793170411471110        6.6749088066149636       -2171.3407918109410        49040.053575819838     
   59.933636636159378        6.3705146834437887       -2152.7907666028045        51192.844342422643     
   64.322530834328944        6.0700978821628997       -2132.5331114250116        53325.377453847657     
   68.974758684388689        5.7733711659973919       -2110.7794659883780        55436.156919836038     
   73.906120205452012        5.4801022021318753       -2087.7126861069669        57523.869605943008     
   79.133363417779137        5.1901055575141744       -2063.4914384193571        59587.361044362362     
   84.674241222845893        4.9032354805443799       -2038.2542446145037        61625.615288976864     
   90.547571696216650        4.6193795803244733       -2012.1229343498485        63637.738223326713     
   96.773301997989648        4.3384534167567068       -1985.4153929123356        65623.153616239055     
   103.37257611786903        4.0603959450358413       -1958.1147889700628        67581.268405209121     
   110.36780668494117        3.7851657161175272       -1930.1403761756123        69511.408781384729     
   117.78275108603765        3.5127660343235489       -1901.5694512564978        71412.978232641224     
   125.64259215119992        3.2431888551804580       -1872.4824424567523        73285.460675097973     
   133.97402368027193        2.9764063033346888       -1842.9669487267481        75128.427623824726     
   142.80534110108826        2.7124159897813165       -1813.0971754754478        76941.524799300169     
   152.16653756715357        2.4512317952363150       -1782.9380694855183        78724.462868785689     
   162.08940582118279        2.1928782579451074       -1752.5478091932039        80477.010677978891     
   172.60764617045376        1.9373870373274991       -1721.9793557801322        82198.990033759022     
   183.75698094068099        1.6847946264456573       -1691.2814434424349        83890.271477201459     
   195.57527579712186        1.4351408004088571       -1660.4992397082842        85550.770716909741     
   208.10266834494917        1.1884674959557706       -1629.6748105985328        87180.445527508273     
   221.38170444564611       0.94481794773870642       -1598.8474665638396        88779.292994072108     
   235.45748271238489       0.70423598421682954       -1568.0540311377529        90347.347025209863     
   250.37780767512800       0.46676542991643855       -1537.3290556790303        91884.676080888894     
   266.19335213563568       0.23244958472577304       -1506.7049939175092        93391.381074806399     
   282.95782926377382        1.3307636053556671E-003  -1476.2123451445357        94867.593419950936     
   300.72817501960026      -0.22655011317692875       -1893.0913860878270        96760.684806038757     
   319.56474152077629      -0.45115388554060143       -1755.2423530360204        98515.927159074781     
   335.53814991377357      -0.61921569125917064       -1451.0210490429201        99966.948208117698     
   352.46996281035069      -0.59777823613330727       -1394.8239714753615        101361.77217959306     
   369.40177570692782      -0.60058266241876912       -1372.4431687646811        102734.21534835774     
   386.33358860350495      -0.60705318357127869       -1300.9483479855976        104035.16369634334     
   403.26540150008208      -0.61186938514870914       -1276.8340087870151        105311.99770513036     
   420.19721439665921      -0.61516763278992670       -1264.4291491178960        106576.42685424826     
   437.12902729323633      -0.61819389623739096       -1263.1981467755727        107839.62500102383     
   454.06084018981346      -0.62265337428356804       -1272.0650322489312        109111.69003327277     
   470.99265308639059      -0.63084929166080661       -1286.7055919254567        110398.39562519823     
   487.92446598296772      -0.64547516933468063       -1294.7696524685059        111693.16527766673     
   505.87218765333944      -0.67220418737354315       -1275.2153467799683        112968.38062444670     
   523.81990932371116      -0.71055349166507531       -1222.6959895982138        114191.07661404491     
   541.76763099408288      -0.79013577074161911       -1155.9611959645902        115347.03781000950     
   559.71535266445460      -0.92092872756552802       -1153.4488414345997        116500.48665144409     
   578.73993763504859      -0.98571145549481565       -1122.4572896711916        117622.94394111529     
   598.90599770387826       -1.0693040776120357       -1110.3076941126631        118733.25163522795     
   620.28202137683775       -1.1914857176259011       -1112.4912513735096        119845.74288660145     
   642.94060647017477       -1.4034443896481046       -1134.4843782395935        120980.22726484104     
   655.23787377203064       -1.5810535283827520       -1159.6943003648871        122139.92156520594     
   668.27297711199787       -1.5905892811521056       -1191.3038611873767        123331.22542639331     
   680.00457011796834       -1.5906662600971522       -1231.1409290036129        124562.36635539692     
   691.73616312393881       -1.5856854983509514       -1284.4283830872068        125846.79473848412     
   703.46775612990928       -1.5779932026943717       -1353.4250515149436        127200.21978999907     
   715.19934913587974       -1.5691564889770904       -1439.9400872139133        128640.15987721298     
   726.93094214185021       -1.5601590928521001       -1544.9075874006992        130185.06746461368     
   738.66253514782068       -1.5516389979374487       -1667.6630754533892        131852.73054006707     
   750.39412815379114       -1.5440409769291086       -1805.1398120788506        133657.87035214592     
   762.12572115976161       -1.5378931373613949       -1951.6983519547612        135609.56870410067     
   774.56120974609030       -1.5329964640441451       -2105.6910895704618        137715.25979367114     
   787.74282764759880       -1.5299608025964442       -2254.5117364365760        139969.77153010771     
   801.71534262319778       -1.5295718996740595       -2382.1535692139068        142351.92509932161     
   816.52620849733273       -1.5334043515520255       -2473.9718870294855        144825.89698635109     
   831.33707437146768       -1.5414758296741542       -2516.6877967571304        147342.58478310821     
   846.14794024560263       -1.5755261689486619       -2400.3822072188841        149742.96699032708     
   860.95880611973757       -1.6258083985425089       -2267.1228285043962        152010.08981883147     
   876.65832394632059       -1.6564573497714732       -2141.9621067273047        154152.05192555877     
   893.29981284249857       -1.6948170845064168       -2003.3206224786711        156155.37254803744     
   910.93979107244729       -1.7362730483599940       -1867.6476336888691        158023.02018172632     
   929.63816799619292       -1.7879944494824311       -1734.1683754580599        159757.18855718439     
   949.45844753536323       -1.8546379378609117       -1611.4495221134466        161368.63807929785     
   970.46794384688383       -1.9453616838644476       -1505.7650005276578        162874.40307982551     
   992.73800993709563       -2.0801235539289720       -1421.5580348582916        164295.96111468380     
   1016.3442799927201       -2.1895688739148458       -1424.4548903648165        165720.41600504861     
   1039.9505500483447       -2.2168792506753316       -1464.9882583313163        167185.40426337993     
   1063.5568201039691       -2.2238496762820810       -1530.6037002927294        168716.00796367266     
   1087.1630901595936       -2.2413746866276956       -1610.6498641556072        170326.65782782825     
   1112.1857364185555       -2.2857166478672144       -1692.3259124557337        172018.98374028399     
   1137.2083826775174       -2.4161511314751505       -1735.4825072017941        173754.46624748578     
   1150.0199775621059       -2.4808725636493687       -1738.6776172323393        175493.14386471812     
   1163.6002681397697       -2.5159173090566700       -1754.0920729693930        177247.23593768751     
   1177.1805587174335       -2.5462676823116817       -1762.4574197327047        179009.69335742021     
   1191.5756667297571       -2.5738873102291420       -1765.1350215540549        180774.82837897426     
   1206.8344812228202       -2.5987058450356120       -1762.4983992844241        182537.32677825869     
   1223.0088245854670       -2.6206411425673029       -1754.8708995252589        184292.19767778396     
   1240.1536285498726       -2.6398592274475581       -1742.5834131192360        186034.78109090318     
   1258.3271207521425       -2.6573342540925564       -1726.2378897327869        187761.01898063597     
   1277.5910224865488       -2.6755530138096750       -1707.3022696432479        189468.32125027923     
   1298.0107583250194       -2.7014593548666230       -1690.9180211052135        191159.23927138443     
   1318.4304941634900       -2.7456948586244989       -1672.2838215051345        192831.52309288958     
   1338.8502300019607       -2.8107545686186493       -1652.3188315970235        194483.84192448659     
   1360.4951499907395       -2.8745200528017278       -1653.4470675447310        196137.28899203133     
   1383.4387651788452       -2.9376830660035784       -1648.5914093508625        197785.88040138219     
   1407.7589972782371       -3.0124635203488213       -1635.1392204148681        199421.01962179705     
   1433.5384433035924       -3.1134442776107649       -1611.1441448895976        201032.16376668666     
   1460.8646560904692       -3.1446499988183274       -1594.9835379361759        202627.14730462283     
   1485.4582475986583       -3.1495361134226210       -1568.3038254961480        204195.45113011898     
   1510.0518391068474       -3.1443081360714715       -1539.7864523683877        205735.23758248737     
   1534.6454306150365       -3.1345605998484665       -1509.6454640842940        207244.88304657166     
   1559.2390221232256       -3.1259780994654371       -1479.8731824260265        208724.75622899769     
   1585.3082291219059       -3.1203319403346672       -1446.0830673545765        210170.83929635226     
   1612.9415885405072       -3.1316653768917089       -1418.7414540042816        211589.58075035654     
   1640.5749479591084       -3.1930923189392466       -1397.8478513136554        212987.42860167020     
   1668.2083073777096       -3.3110574646364901       -1379.3813291203483        214366.80993079054     
   1695.8416667963108       -3.3797520874375166       -1380.4827599112327        215747.29269070178     
   1725.1330277800282       -3.4556965029001083       -1377.5483125180751        217124.84100321986     
   1756.1818704227685       -3.5477332671139745       -1370.4062729040397        218495.24727612390     
   1789.0936436240734       -3.6710538326788820       -1355.8090702647949        219851.05634638871     
   1823.9801232174564       -3.6813981118290067       -1344.9404557289849        221195.99680211770     
   1858.8666028108394       -3.6655733023539483       -1320.3865391452237        222516.38334126293     
   1893.7530824042224       -3.6658816775528744       -1297.7407462366614        223814.12408749960     
   1930.7327507732084       -3.6980736259997133       -1271.4746018896535        225085.59868938924     
   1967.7124191421944       -3.8274085154329613       -1239.5920379592831        226325.19072734853     
   2004.6920875111805       -3.9400647161777309       -1216.7385268204985        227541.92925416902     
   2041.6717558801665       -4.0054209338521138       -1204.5062941880108        228746.43554835703     
   2078.6514242491526       -4.0554280285132993       -1194.1366297958816        229940.57217815291     
   2115.6310926181386       -4.0960300983600701       -1185.5883628159638        231126.16054096888     
   2154.8295410892638       -4.1371967602534632       -1177.8023435807686        232303.96288454963     
   2194.0279895603890       -4.1969371352592892       -1165.7597724077318        233469.72265695737     
   2233.2264380315141       -4.2557153867384825       -1153.5940527711468        234623.31670972850     
   2274.7767934109070       -4.3184786363587193       -1141.6860492310575        235765.00275895957     
   2318.8201701130633       -4.3657839860716026       -1132.1071781201558        236897.10993707972     
   2362.8635468152197       -4.3964468849410956       -1125.3523805216983        238022.46231760143     
   2406.9069235173761       -4.4113887804875578       -1121.7914096077493        239144.25372720917     
   2450.9503002195324       -4.4165582214900043       -1120.4121953225499        240264.66592253171     
   2494.9936769216888       -4.4199556556502966       -1119.5050597655818        241384.17098229731     
   2541.6796562259747       -4.4322713311114503       -1117.6334643062241        242501.80444660352     
   2588.3656355302605       -4.5075686512961477       -1105.2205574403267        243607.02500404386     
   2635.0516148345464       -4.5769380385425329       -1090.8275287864828        244697.85253283035     
   2684.5387528970891       -4.6479299625677601       -1077.3447867354837        245775.19731956584     
   2736.9951192433846       -4.7348106209956162       -1061.4920099220151        246836.68932948785     
   2792.5988675704580       -4.7660687640722861       -1051.6103103131150        247888.29963980097     
   2848.2026158975314       -4.7734135924551193       -1048.4094289161517        248936.70906871711     
   2903.8063642246047       -4.7818283921419642       -1046.6808937573701        249983.38996247450     
   2962.7463374513022       -4.8148708503149873       -1042.2155236298026        251025.60548610429     
   3021.6863106779997       -4.9100629496854555       -1028.1837438714406        252053.78922997572     
   3080.6262839046972       -4.9716731622023875       -1012.9415501058819        253066.73078008159     
   3139.5662571313947       -5.0238829536385676       -1001.6793279855865        254068.41010806718     
   3198.5062303580921       -5.0687880202973243       -992.02642211303225        255060.43653018022     
   3260.9826019783914       -5.1265266061184755       -981.91338519578619        256042.34991537599     
   3323.4589735986906       -5.1823941888493747       -970.47999246201925        257012.82990783802     
   3389.6839275162079       -5.2290403098024774       -960.54114973832043        257973.37105757635     
   3455.9088814337251       -5.2630748240936018       -952.46942598472731        258925.84048356107     
   3522.1338353512424       -5.2851717360201755       -946.85617137600707        259872.69665493708     
   3588.3587892687597       -5.3000405151898331       -943.16243632401495        260815.85909126111     
   3654.5837431862769       -5.3144300391974735       -940.18705505954506        261756.04614632064     
   3724.7821943388453       -5.3775647776235083       -932.73720483226452        262688.78335115290     
   3794.9806454914137       -5.4396332094992106       -920.12518479900052        263608.90853595192     
   3869.3910037131363       -5.5100746147018160       -907.27669260132336        264516.18522855325     
   3943.8013619348590       -5.5422448170396210       -896.55202484374956        265412.73725339700     
   4018.2117201565816       -5.5592172502941493       -891.47690086575528        266304.21415426274     
   4092.6220783783042       -5.5727046114401722       -888.38937157451153        267192.60352583724     
   4167.0324366000268       -5.5944476486355699       -884.94029290115054        268077.54381873837     
   4241.4427948217490       -5.6526572126871848       -877.33228574915131        268954.87610448751     
   4315.8531530434711       -5.6987534372844344       -866.70516519066462        269821.58126967819     
   4390.2635112651933       -5.7403006401095595       -857.87085770597071        270679.45212738414     
   4469.1384909802191       -5.7840451473662124       -849.56398516557522        271529.01611254970     
   4548.0134706952449       -5.8340852136036911       -840.27130371933345        272369.28741626901     
