 #              _____________________  _______________________             #
 #              ___  __ \__  __ \_  / / /_  /___  ____/_  ___/             #
 #              __  / / /_  /_/ /  / / /_  __/_  __/  _____ \              #
 #              _  /_/ /_  _, _// /_/ / / /_ _  /___  ____/ /              #
 #              /_____/ /_/ |_| \____/  \__/ /_____/  /____/               #
 #                                                                         #
  
 #        time                      T            heat flux [W.L-2]   in    x              directions   cumulative flux
 #-----------------------------------------------------------------------------------------------

   0.0000000000000000        20.000000000000000       -0.0000000000000000        0.0000000000000000     
   1.0000000000000000        20.000000000000000       -6.7785776991513509E-012   6.7785776991513509E-012
   1.9540000000000002        20.000000000000000       -5.1969095693493766E-011   5.8747673392645122E-011
   2.8641160000000001        19.999999999999979       -2.2595258997171315E-010   2.8470026336435829E-010
   3.8288389600000006        19.999999999999890       -9.3318419658319459E-010   1.2178844599475530E-009
   4.8514452976000007        19.999999999999542       -3.4909675150632977E-009   4.7088519750108507E-009
   5.9354080154560007        19.999999999998302       -1.1855732395819766E-008   1.6564584370830617E-008
   7.0844084963833609        19.999999999994198       -3.6947767512213551E-008   5.3512351883044168E-008
   8.3023490061663630        19.999999999981672       -1.0687331553104741E-007   1.6038566741409157E-007
   9.5933659465363448        19.999999999945850       -2.8972770849362675E-007   4.5011337590771832E-007
   10.961843903328527        19.999999999849081       -7.4215370917022532E-007   1.1922670850779437E-006
   12.412430537528239        19.999999999600451       -1.8084341491904084E-006   3.0007012342683518E-006
   13.950052369779934        19.999999998989573       -4.2153116415781935E-006   7.2160128758465453E-006
   15.579931511966731        19.999999997547718       -9.4420853667512253E-006   1.6658098242597771E-005
   17.307603402684734        19.999999994266062       -2.0401979019207195E-005   3.7060077261804967E-005
   19.138935606845820        19.999999987040859       -4.2660363079541565E-005   7.9720440341346532E-005
   21.080147743256571        19.999999971611633       -8.6553609458242441E-005   1.6627404979958899E-004
   23.137832607851966        19.999999939582391       -1.7077892360501586E-004   3.3705297340460487E-004
   25.318978564323086        19.999999874826468       -3.2832464477540501E-004   6.6537761818000988E-004
   27.630993278182473        19.999999747111403       -6.1603000588260804E-004   1.2814076240626180E-003
   30.081728874873424        19.999999501056827       -1.1296307682075596E-003   2.4110383922701776E-003
   32.679508607365833        19.999999037440539       -2.0268861181139517E-003   4.4379245103841293E-003
   35.433155123807786        19.999998182249094       -3.5623031530072841E-003   8.0002276633914134E-003
   38.352020431236255        19.999996636551618       -6.1380659269366792E-003   1.4138293590328092E-002
   41.446017657110431        19.999993897057919       -1.0376986771835850E-002   2.4515280362163942E-002
   44.725654716537058        19.999989132900854       -1.7224528556455922E-002   4.1739808918619864E-002
   48.202069999529286        19.999980998584512       -2.8088033391279042E-002   6.9827842309898913E-002
   51.887070199501046        19.999967356072297       -4.5022001261863925E-002  0.11484984357176284     
   55.793170411471110        19.999944870708255       -7.0968288479529990E-002  0.18581813205129283     
   59.933636636159378        19.999908436356677      -0.11005908931289038       0.29587722136418321     
   64.322530834328944        19.999850375404986      -0.16798816396113514       0.46386538532531835     
   68.974758684388689        19.999759350080978      -0.25245167133466351       0.71631705665998191     
   73.906120205452012        19.999618914276866      -0.37365397355784430        1.0899710302178263     
   79.133363417779137        19.999405631524873      -0.54486593301168251        1.6348369632295088     
   84.674241222845893        19.999086686976625      -0.78301384809585484        2.4178508113253638     
   90.547571696216650        19.998616931302610       -1.1092669426568167        3.5271177539821803     
   96.773301997989648        19.997935314193921       -1.5495812573779135        5.0766990113600938     
   103.37257611786903        19.996960695822473       -2.1351491968888623        7.2118482082489557     
   110.36780668494117        19.995587066360791       -2.9026983230114811        10.114546531260437     
   117.78275108603765        19.993678255246756       -3.8945816644577778        14.009128195718215     
   125.64259215119992        19.991062270466720       -5.1586059606998464        19.167734156418064     
   133.97402368027193        19.987525469290983       -6.7475544660941846        25.915288622512250     
   142.80534110108826        19.982806819885528       -8.7183770887187322        34.633665711230982     
   152.16653756715357        19.976592561537981       -11.131041801921603        45.764707513152587     
   162.08940582118279        19.968511603387800       -14.047065753159364        59.811773266311953     
   172.60764617045376        19.958132011969305       -17.527770013543901        77.339543279855860     
   183.75698094068099        19.944958922776443       -21.632325855784050        98.971869135639906     
   195.57527579712186        19.928434169134629       -26.415680246634700        125.38754938227461     
   208.10266834494917        19.907937854462411       -31.926461716614519        157.31401109888913     
   221.38170444564611        19.882792005890551       -38.204973449609007        195.51898454849814     
   235.45748271238489        19.852266344916430       -45.281377738716401        240.80036228721454     
   250.37780767512800        19.815586102618497       -53.174165255483409        293.97452754269796     
   266.19335213563568        19.771941701797811       -61.888985112746767        355.86351265544471     
   282.95782926377382        19.720500034585690       -71.417889355544617        427.28140201098932     
   300.72817501960026        19.660416988414294       -81.739020544952510        509.02042255594182     
   319.56474152077629        19.590850820483798       -92.816745818016983        601.83716837395878     
   335.53814991377357        19.527870169906311       -102.25033332545905        704.08750169941777     
   352.46996281035069        19.456925769618380       -112.23432236492309        816.32182406434083     
   369.40177570692782        19.382098248568312       -122.15120638849999        938.47303045284082     
   386.33358860350495        19.303689959309381       -131.95708125412403        1070.4301117069649     
   403.26540150008208        19.222000369441194       -141.61447798615393        1212.0445896931187     
   420.19721439665921        19.137323590945915       -151.09149072636572        1363.1360804194844     
   437.12902729323633        19.049946516224832       -160.36111666253390        1523.4971970820184     
   454.06084018981346        18.960147374673717       -169.40072424552162        1692.8979213275400     
   470.99265308639059        18.868194653865366       -178.19156756571999        1871.0894888932598     
   487.92446598296772        18.774346669437499       -186.71824887172116        2057.8077377649811     
   505.87218765333944        18.673031420104365       -195.44518662344836        2253.2529243884296     
   523.81990932371116        18.570159997643078       -203.84909834924380        2457.1020227376735     
   541.76763099408288        18.465998501333047       -211.92116295937450        2669.0231856970481     
   559.71535266445460        18.360798489390465       -219.65574700226276        2888.6789326993107     
   578.73993763504859        18.248398108167340       -227.47299637383833        3116.1519290731489     
   598.90599770387826        18.128559548908179       -235.33334458020997        3351.4852736533589     
   620.28202137683775        18.001074815244483       -243.19646801667136        3594.6817416700305     
   642.94060647017477        17.865761987079232       -251.02537687964417        3845.7071185496748     
   655.23787377203064        17.792320531401899       -255.12897089510915        4100.8360894447842     
   668.27297711199787        17.714519031666647       -259.32207399716299        4360.1581634419472     
   680.00457011796834        17.644568529410218       -262.97362666436629        4623.1317901063139     
   691.73616312393881        17.574718294882491       -266.50788324101489        4889.6396733473284     
   703.46775612990928        17.504994388152088       -269.92960901503233        5159.5692823623604     
   715.19934913587974        17.435420061984253       -273.24323611959636        5432.8125184819564     
   726.93094214185021        17.366016350636883       -276.45271862907441        5709.2652371110307     
   738.66253514782068        17.296802639881317       -279.56145238351161        5988.8266894945427     
   750.39412815379114        17.227797173817763       -282.57225719842961        6271.3989466929725     
   762.12572115976161        17.159017471665816       -285.48742628609500        6556.8863729790673     
   774.56120974609030        17.086384980129111       -288.47218610428928        6845.3585590833563     
   787.74282764759880        17.009726273919483       -291.51968272566438        7136.8782418090204     
   801.71534262319778        16.928868910081050       -294.62124138093151        7431.4994831899521     
   816.52620849733273        16.843643478131984       -297.76630410990515        7729.2657872998570     
   831.33707437146768        16.758933428200372       -300.77103147765229        8030.0368187775093     
   846.14794024560263        16.674769278497308       -303.63806969313021        8333.6748884706394     
   860.95880611973757        16.591179267066842       -306.37078135042162        8640.0456698210619     
   876.65832394632059        16.503248791842928       -309.12157117805884        8949.1672409991206     
   893.29981284249857        16.410830638450978       -311.88064115992677        9261.0478821590477     
   910.93979107244729        16.313780909506661       -314.63853878929473        9575.6864209483429     
   929.63816799619292        16.211958578772027       -317.38648345253813        9893.0729044008804     
   949.45844753536323        16.105224226283752       -320.11698148558219        10213.189885886462     
   970.46794384688383        15.993437312303914       -322.82483622698021        10536.014722113443     
   992.73800993709563        15.876450782715615       -325.50888739485913        10861.523609508302     
   1016.3442799927201        15.754103323414768       -328.17349246294594        11189.697101971247     
   1039.9505500483447        15.633360011036325       -330.68493900862626        11520.382040979874     
   1063.5568201039691        15.514156933501695       -333.06586705174050        11853.447908031614     
   1087.1630901595936        15.396429762468191       -335.33230996639355        12188.780217998008     
   1112.1857364185555        15.273230949106175       -337.61662690537469        12526.396844903382     
   1137.2083826775174        15.151570439648353       -339.78836503517533        12866.185209938558     
   1150.0199775621059        15.089677097990734       -340.87132570740863        13207.056535645967     
   1163.6002681397697        15.024509205615171       -341.98749324916656        13549.044028895132     
   1177.1805587174335        14.959774095701810       -343.07261882269972        13892.116647717832     
   1191.5756667297571        14.891634440163237       -344.18871927863063        14236.305366996463     
   1206.8344812228202        14.819938282118290       -345.33401014035422        14581.639377136817     
   1223.0088245854670        14.744531337248372       -346.50575790261286        14928.145135039429     
   1240.1536285498726        14.665258516246212       -347.69993501574891        15275.845070055178     
   1258.3271207521425        14.581965991216453       -348.91086509218854        15624.755935147366     
   1277.5910224865488        14.494503810285236       -350.13089989699728        15974.886835044364     
   1298.0107583250194        14.402728598191741       -351.35049748265578        16326.237332527020     
   1318.4304941634900        14.311894629635743       -352.49514708994457        16678.732479616963     
   1338.8502300019607        14.222006014566389       -353.56666390478313        17032.299143521748     
   1360.4951499907395        14.127784119706902       -354.62595043336523        17386.925093955113     
   1383.4387651788452        14.029086630364294       -355.67203982354778        17742.597133778661     
   1407.7589972782371        13.925759408167163       -356.70854549493134        18099.305679273592     
   1433.5384433035924        13.817622942211603       -357.74765414114546        18457.053333414737     
   1460.8646560904692        13.704473363003794       -358.80205372078422        18815.855387135522     
   1485.4582475986583        13.603775953222367       -359.71835422471105        19175.573741360233     
   1510.0518391068474        13.504177088793501       -360.59778809043411        19536.171529450668     
   1534.6454306150365        13.405663176568332       -361.42893582255499        19897.600465273223     
   1559.2390221232256        13.308245578092045       -362.19669797681416        20259.797163250038     
   1585.3082291219059        13.206253562218995       -362.92115659302920        20622.718319843068     
   1612.9415885405072        13.099632595441946       -363.57236071833955        20986.290680561407     
   1640.5749479591084        12.994564650594484       -364.09936166659611        21350.390042228002     
   1668.2083073777096        12.891082553993343       -364.51259652790702        21714.902638755910     
   1695.8416667963108        12.789184989155437       -364.83034961997191        22079.732988375883     
   1725.1330277800282        12.682916548732376       -365.08374317502688        22444.816731550909     
   1756.1818704227685        12.572145013984787       -365.28966332565949        22810.106394876570     
   1789.0936436240734        12.456661036451111       -365.48760477610529        23175.593999652676     
   1823.9801232174564        12.336164169398678       -365.72668582024994        23541.320685472925     
   1858.8666028108394        12.217348186021493       -366.01488572736611        23907.335571200292     
   1893.7530824042224        12.100054073424968       -366.33909720224693        24273.674668402538     
   1930.7327507732084        11.977355843918962       -366.68443153736945        24640.359099939909     
   1967.7124191421944        11.856276630833744       -367.00181565407826        25007.360915593988     
   2004.6920875111805        11.736808246552602       -367.28130942965646        25374.642225023646     
   2041.6717558801665        11.618948902749469       -367.51527519319728        25742.157500216843     
   2078.6514242491526        11.502721002738795       -367.68935267715096        26109.846852893992     
   2115.6310926181386        11.388169408767899       -367.78811817133129        26477.634971065323     
   2154.8295410892638        11.268686946896707       -367.79708904501729        26845.432060110339     
   2194.0279895603890        11.151130714362615       -367.73563571017434        27213.167695820513     
   2233.2264380315141        11.035428997393577       -367.63106891111403        27580.798764731626     
   2274.7767934109070        10.914726475314291       -367.50558101084050        27948.304345742465     
   2318.8201701130633        10.788814130699022       -367.36676891980983        28315.671114662273     
   2362.8635468152197        10.664859470547192       -367.20585063331458        28682.876965295589     
   2406.9069235173761        10.542897160988861       -366.98279071725568        29049.859756012844     
   2450.9503002195324        10.423056101995902       -366.65131867686881        29416.511074689712     
   2494.9936769216888        10.305524763576567       -366.17109699234976        29782.682171682063     
   2541.6796562259747        10.183739952697017       -365.47786148676443        30148.160033168828     
   2588.3656355302605        10.064730874651200       -364.67025352338658        30512.830286692213     
   2635.0516148345464        9.9483338001281609       -363.81293208852702        30876.643218780740     
   2684.5387528970891        9.8276026586567244       -362.90757195688371        31239.550790737623     
   2736.9951192433846        9.7020609542065586       -362.06074254017335        31601.611533277795     
   2792.5988675704580        9.5711216394931942       -361.33715195011894        31962.948685227915     
   2848.2026158975314        9.4419742291591113       -360.74769318214771        32323.696378410063     
   2903.8063642246047        9.3146095785827967       -360.19468112095740        32683.891059531019     
   2962.7463374513022        9.1818395649332984       -359.54692756589697        33043.437987096913     
   3021.6863106779997        9.0513922587213091       -358.84683825687853        33402.284825353789     
   3080.6262839046972        8.9234196209609067       -358.06066801109159        33760.345493364883     
   3139.5662571313947        8.7980353089839696       -357.18132790754544        34117.526821272426     
   3198.5062303580921        8.6753242283156666       -356.20806875953969        34473.734890031963     
   3260.9826019783914        8.5478924141312600       -355.19968530674663        34828.934575338710     
   3323.4589735986906        8.4227190047031968       -354.26301639787670        35183.197591736585     
   3389.6839275162079        8.2924993622894583       -353.27384028421483        35536.471432020800     
   3455.9088814337251        8.1648195950809352       -352.23897965232959        35888.710411673128     
   3522.1338353512424        8.0399705490244600       -351.08254618062097        36239.792957853751     
   3588.3587892687597        7.9183338197183097       -349.74559134085456        36589.538549194607     
   3654.5837431862769        7.8002836142121970       -348.19879249567811        36937.737341690285     
   3724.7821943388453        7.6783409944121939       -346.64827520902543        37284.385616899308     
   3794.9806454914137        7.5589039154929374       -345.24106338784964        37629.626680287154     
   3869.3910037131363        7.4341430999370575       -344.01460730868291        37973.641287595834     
   3943.8013619348590        7.3108500722584093       -342.96378671604816        38316.605074311883     
   4018.2117201565816        7.1890672656757264       -341.97904478184813        38658.584119093728     
   4092.6220783783042        7.0692008625763165       -340.93745015317535        38999.521569246906     
   4167.0324366000268        6.9519104703024128       -339.71961168588825        39339.241180932797     
   4241.4427948217490        6.8370118065194649       -338.49284861420307        39677.734029546998     
   4315.8531530434711        6.7246060118303497       -337.20833554963633        40014.942365096635     
   4390.2635112651933        6.6147088593237111       -335.86978894638241        40350.812154043015     
   4469.1384909802191        6.5008501679422910       -334.43601327266811        40685.248167315680     
   4548.0134706952449        6.3877380665134584       -333.45318941426206        41018.701356729944     
