 #              _____________________  _______________________             #
 #              ___  __ \__  __ \_  / / /_  /___  ____/_  ___/             #
 #              __  / / /_  /_/ /  / / /_  __/_  __/  _____ \              #
 #              _  /_/ /_  _, _// /_/ / / /_ _  /___  ____/ /              #
 #              /_____/ /_/ |_| \____/  \__/ /_____/  /____/               #
 #                                                                         #
  
 #        time                      T            heat flux [W.L-2]   in    x              directions   cumulative flux
 #-----------------------------------------------------------------------------------------------

   0.0000000000000000        10.000000000000000       -0.0000000000000000        0.0000000000000000     
   1.0000000000000000        10.000000000000000       -3.9541703245049543E-012   3.9541703245049543E-012
   1.9540000000000002        9.9999999999999982       -3.2198244070968914E-011   3.6152414395473872E-011
   2.8641160000000001        9.9999999999999876       -1.4856382790640055E-010   1.8471624230187442E-010
   3.8288389600000006        9.9999999999999272       -6.1572080767291585E-010   8.0043704997479029E-010
   4.8514452976000007        9.9999999999996980       -2.3058461806613402E-009   3.1062832306361303E-009
   5.9354080154560007        9.9999999999988756       -7.8309518869448585E-009   1.0937235117580989E-008
   7.0844084963833609        9.9999999999961666       -2.4401749953997530E-008   3.5338985071578521E-008
   8.3023490061663630        9.9999999999879030       -7.0568383137036193E-008   1.0590736820861472E-007
   9.5933659465363448        9.9999999999642757       -1.9125982930760914E-007   2.9716719751622386E-007
   10.961843903328527        9.9999999999004494       -4.8980194833448498E-007   7.8696914585070889E-007
   12.412430537528239        9.9999999997364952       -1.1932505437132787E-006   1.9802196895639874E-006
   13.950052369779934        9.9999999993337436       -2.7807928759992242E-006   4.7610125655632112E-006
   15.579931511966731        9.9999999983833128       -6.2276623539684405E-006   1.0988674919531652E-005
   17.307603402684734        9.9999999962204917       -1.3454127796596758E-005   2.4442802716128411E-005
   19.138935606845820        9.9999999914593207       -2.8128225032407543E-005   5.2571027748535954E-005
   21.080147743256571        9.9999999812932572       -5.7061904398793338E-005   1.0963293214732929E-004
   23.137832607851966        9.9999999601919551       -1.1257648718072052E-004   2.2220941932804981E-004
   25.318978564323086        9.9999999175334473       -2.1641063713908869E-004   4.3862005646713850E-004
   27.630993278182473        9.9999998334052123       -4.0602083450328076E-004   8.4464089097041921E-004
   30.081728874873424        9.9999996713307127       -7.4449910090987369E-004   1.5891399918802930E-003
   32.679508607365833        9.9999993659540056       -1.3358211606545726E-003   2.9249611525348656E-003
   35.433155123807786        9.9999988026470010       -2.3477477466357253E-003   5.2727088991705914E-003
   38.352020431236255        9.9999977844737664       -4.0454247555611724E-003   9.3181336547317646E-003
   41.446017657110431        9.9999959798203477       -6.8395325840019680E-003   1.6157666238733732E-002
   44.725654716537058        9.9999928411407488       -1.1353656060988556E-002   2.7511322299722286E-002
   48.202069999529286        9.9999874815630676       -1.8516276584451905E-002   4.6027598884174195E-002
   51.887070199501046        9.9999784914796361       -2.9683273099410015E-002   7.5710871983584213E-002
   55.793170411471110        9.9999636717439842       -4.6796858942415739E-002  0.12250773092599995     
   59.933636636159378        9.9999396538978438       -7.2586244974464836E-002  0.19509397590046479     
   64.322530834328944        9.9999013713404761      -0.11081376558656908       0.30590774148703387     
   68.974758684388689        9.9998413391691390      -0.16656752450880463       0.47247526599583850     
   73.906120205452012        9.9997486954768231      -0.24659768565071999       0.71907295164655849     
   79.133363417779137        9.9996079543622258      -0.35968836418816241        1.0787613158347209     
   84.674241222845893        9.9993974221428381      -0.51705087085711465        1.5958121866918356     
   90.547571696216650        9.9990872346663888      -0.73271726219364108        2.3285294488854769     
   95.528155937635049        9.9987496820813817      -0.95472496960492348        3.2832544184904005     
   98.231218617137642        9.9985425576350231       -1.0873590605727435        4.3706134790631435     
   101.09646505741040        9.9982936786359637       -1.2423172549294879        5.6129307339926315     
   104.13362628409952        9.9979939136864679       -1.4235365367230259        7.0364672707156579     
   107.35301718438998        9.9976320903573157       -1.6356179666458128        8.6720852373614701     
   110.76557153869787        9.9971945563957192       -1.8839179996671847        10.556003237028655     
   114.38287915426423        9.9966646587816488       -2.1746435071820245        12.730646744210679     
   118.21722522676458        9.9960221310222970       -2.5149467159132830        15.245593460123962     
   122.28163206361495        9.9952423805615194       -2.9130146518599340        18.158608111983895     
   126.58990331067633        9.9942956709435400       -3.3781460025677470        21.536754114551641     
   131.15667083256142        9.9931461976474800       -3.9208068038133144        25.457560918364955     
   135.99744440575961        9.9917510623892056       -4.5526553323353092        30.010216250700264     
   141.12866439334968        9.9900591580266411       -5.2865264105680811        35.296742661268347     
   146.56775758019515        9.9880099845406765       -6.1363663715154875        41.433109032783833     
   152.33319635825134        9.9855324250460100       -7.1171125042596834        48.550221537043512     
   158.44456146299092        9.9825435181477342       -8.2445150968647294        56.794736633908244     
   164.92260847401488        9.9789472675337496       -9.5349062478074078        66.329642881715657     
   171.78933830570026        9.9746335294627677       -11.004927314122165        77.334570195837827     
   179.06807192728678        9.9694770114007731       -12.671236088330538        90.005806284168358     
   186.78352956616848        9.9633363908953658       -14.550235915617105        104.55604219978547     
   194.49898720505018        9.9565075983722373       -16.532932625844527        121.08897482562999     
   202.67737230226479        9.9484855436069441       -18.740499754887566        139.82947458051757     
   205.51805912463939        9.9456042754297407       -19.519614239906414        159.34908882042399     
   208.52918715635647        9.9424431913772722       -20.358826266444154        179.70791508686813     
   211.72098286997658        9.9389720123953396       -21.262786475053410        200.97070156192154     
   215.10428632641390        9.9351570480884011       -22.236464137877647        223.20716569979919     
   218.69058799023745        9.9309608333827875       -23.285156832153898        246.49232253195308     
   222.49206775389041        9.9263417278600752       -24.414502692473963        270.90682522442705     
   226.52163630336256        9.9212534797784144       -25.630489593109235        296.53731481753630     
   230.79297896580303        9.9156447547084348       -26.939458341181737        323.47677315871806     
   235.32060218798992        9.9094586533837230       -28.348080370008123        351.82485352872618     
   240.11988280350803        9.9026321224629594       -29.863377220342425        381.68823074906862     
   245.20712025595722        9.8950954522698638       -31.492638401460788        413.18086915052942     
   250.59959195555336        9.8867717090009322       -33.243360338718823        446.42422948924826     
   256.31561195712527        9.8775761999924789       -35.123139079168993        481.54736856841726     
   262.37459315879147        9.8674159865549882       -37.139523482164947        518.68689205058217     
   268.79711323255765        9.8561894792920981       -39.299826656318601        557.98671870690077     
   275.60498451074983        9.8437861556398438       -41.610897024882476        599.59761573178321     
   282.82132806563351        9.8300864415673885       -44.078854832720047        643.67647056450323     
   290.47065223381026        9.8149617978746004       -46.708804775566435        690.38527534006971     
   298.57893585207756        9.7982750453456351       -49.504540307509465        739.88981564757921     
   307.17371648744091        9.7798809513978373       -52.468259715978327        792.35807536355753     
   316.28418396092610        9.7596270830818259       -55.600318188230069        847.95839355178759     
   325.94127948282039        9.7373549061528006       -58.899044449542515        906.85743800133014     
   336.17780073602830        9.7129010743036979       -62.360657324680261        969.21809532601037     
   347.02851326442874        9.6860987970496772       -65.979333251016854        1035.1974285770273     
   358.53026854453316        9.6567790680312715       -69.747521528091539        1104.9449501051188     
   370.72212914144387        9.6247709102284258       -73.657126096730536        1178.6020762018493     
   382.91398973835459        9.5919189442763084       -77.478309306481123        1256.0803855083304     
   395.83736197107993        9.5562370295669883       -81.430998816828009        1337.5113843251584     
   406.17605975726019        9.5271818632773595       -84.533276057213371        1422.0446603823718     
   417.13507941061130        9.4958513839048386       -87.758924738637802        1509.8035851210097     
   428.09409906396240        9.4640235049166179       -90.926408777758738        1600.7299938987685     
   439.05311871731351        9.4317283455054621       -94.039525094246017        1694.7695189930146     
   450.66967954986569        9.3970028311682015       -97.281184212908641        1792.0507032059231     
   462.98323403237100        9.3596769980090997       -100.65296413551506        1892.7036673414382     
   476.03560178382662        9.3195748112684278       -104.15345828295197        1996.8571256243902     
   489.87111160036960        9.2765174255051832       -107.77758035359028        2104.6347059779805     
   504.53675200590516        9.2303269578408784       -111.51627494725336        2216.1509809252339     
   520.08233083577284        9.1808301939031143       -115.35679722448774        2331.5077781497216     
   536.56064439543252        9.1278611641973892       -119.28390110967605        2450.7916792593978     
   550.53425429402398        9.0826402324552973       -122.50870476807272        2573.3003840274705     
   554.19735228728030        9.0707660585423326       -123.34678587751657        2696.6471699049871     
   558.08023616013202        9.0581582956762539       -124.22696434543562        2820.8741342504227     
   562.19609306535483        9.0447718578350944       -125.15076051365837        2946.0248947640812     
   566.55890138489099        9.0305589306716723       -126.11967213626293        3072.1445669003442     
   571.18347820359941        9.0154689589015664       -127.13516778184042        3199.2797346821844     
   576.08552963143029        8.9994485362137659       -128.19866615878774        3327.4784008409720     
   581.28170414493104        8.9824413067743851       -129.31150517640637        3456.7899060173781     
   586.78964912924187        8.9643878867798978       -130.47489874048676        3587.2648047578650     
   592.62807081261133        8.9452258163550198       -131.68988073214570        3718.9546854900109     
   598.81679779698288        8.9248895530058618       -132.95723764966397        3851.9119231396749     
   605.37684840041675        8.9033105172645968       -134.27743380317617        3986.1893569428512     
   612.33050204005667        8.8804171985795772       -135.65053547951371        4121.8398924223648     
   619.70137489807496        8.8561353245034002       -137.07614288105404        4258.9160353034185     
   627.51450012757437        8.8303880885153969       -138.55334070793887        4397.4693760113578     
   635.79641287084371        8.8030964211453266       -140.08067997404254        4537.5500559853999     
   644.57524037870928        8.7741792750929122       -141.65620523633979        4679.2062612217396     
   653.88079753704676        8.7435541310056877       -143.27769747450509        4822.4839586962444     
   663.74468812488453        8.7111361762231017       -144.94253918706579        4967.4264978833098     
   674.20041214799255        8.6768390318100650       -146.64845847924752        5114.0749563625577     
   685.28347961248710        8.6405735304609816       -148.39414930857114        5262.4691056711290     
   697.03153112485131        8.6022454614179633       -150.18071460414274        5412.6498202752718     
   701.11210873559708        8.5889466927137814       -150.79386022574113        5563.4436805010128     
   705.43752100298764        8.5748662280103733       -151.43585489640191        5714.8795353974147     
   710.02245800642163        8.5599595633129297       -152.10803296149575        5866.9875683589107     
   714.88249123006165        8.5441796001931767       -152.81186607371748        6019.7994344326280     
   720.03412644712000        8.5274764950566961       -153.54901880596000        6173.3484532385883     
   725.49485977720190        8.5097974351139722       -154.32134659709894        6327.6697998356876     
   731.28323710708867        8.4910864144804918       -155.13086087724349        6482.8006607129309     
   737.41891707676871        8.4712840338452118       -155.97965486960041        6638.7803155825313     
   743.92273784462952        8.4503273528586078       -156.86978854205867        6795.6501041245901     
   750.81678785856195        8.4281498270143516       -157.80313720313382        6953.4532413277238     
   758.12448087333041        8.4046813591906879       -158.78121433369745        7112.2344556614216     
   765.87063546898491        8.3798484896038410       -159.80498442044319        7272.0394400818650     
   774.08155934037870        8.3535747368197768       -160.87468501002027        7432.9141250918856     
   782.78513864405613        8.3257810874186156       -161.98967852690146        7594.9038036187867     
   792.01093270595425        8.2963866138145672       -163.14835398164993        7758.0521576004367     
   801.79027441156620        8.2653091796986207       -164.34809678243653        7922.4002543828728     
   812.15637661951484        8.2324661714812848       -165.58534210441528        8087.9855964872877     
   823.14444495994042        8.1977749552858157       -166.85602486925748        8254.8416213565451     
   834.79179740079155        8.1611535735600569       -168.15521869722539        8422.9968400537709     
   847.13799098809375        8.1225204049680855       -169.47845458205740        8592.4752946358276     
   860.22495619063409        8.0817927576281914       -170.82275615579621        8763.2980507916236     
   874.09713930532689        8.0388812608030555       -172.19059240672345        8935.4886431983468     
   881.19969706004963        8.0169789864140153       -172.87756543299179        9108.3662086313379     
   888.72840828005565        7.9938386498369285       -173.59313731252172        9281.9593459438602     
   896.70884217326204        7.9693923859336531       -174.34100346920880        9456.3003494130699     
   905.16810210006088        7.9435667231398535       -175.12576934979566        9631.4261187628654     
   914.13491762246758        7.9162818078556727       -175.95262026067056        9807.3787390235357     
   923.63974207621868        7.8874511959345508       -176.82663102295496        9984.2053700464912     
   933.71485599719495        7.8569822776071003       -177.75195875853657        10161.957328805027     
   944.39447675342967        7.8247768876161530       -178.73133601812214        10340.688664823148     
   955.71487475503852        7.7907342932497139       -179.76472072467288        10520.453385547822     
   967.71449663674389        7.7547521535511965       -180.84977198301829        10701.303157530840     
   980.43409583135167        7.7167289575649800       -181.98170951393448        10883.284867044775     
   993.91687097763588        7.6765658197347983       -183.15379907550712        11066.438666120283     
   1008.2086126326972        7.6341674279095457       -184.35830309671570        11250.796969216999     
   1023.3578587870621        7.5894412511832261       -185.58816502032411        11436.385134237324     
   1039.4160597106888        7.5422927354976803       -186.84049931602362        11623.225633553348     
   1056.4377526897333        7.4926260839881262       -188.11210523322845        11811.337738786577     
   1073.4594456687778        7.4432896512674835       -189.32519203175093        12000.662930818327     
   1091.5024402265649        7.3913945221733712       -190.53825562005841        12191.201186438386     
   1110.6280144578193        7.3368796917821415       -191.73439662770465        12382.935583066090     
   1130.6280144578193        7.2804601989340636       -192.88394742823527        12575.819530494326     
   1150.6280144578193        7.2246636378352846       -193.93761905655998        12769.757149550886     
   1170.6280144578193        7.1695023099597570       -194.91069128476985        12964.667840835655     
   1190.6280144578193        7.1149535883481860       -195.83075631925144        13160.498597154907     
   1206.6280144578193        7.0716733542880466       -196.55547443085507        13357.054071585762     
   1222.6280144578193        7.0287113571558404       -197.28234029487632        13554.336411880638     
   1239.5880144578193        6.9834961041277150       -198.05193320586346        13752.388345086501     
   1257.5656144578193        6.9359244218357805       -198.84841018622311        13951.236755272725     
   1276.6218704578193        6.8859258375116061       -199.64405154560859        14150.880806818333     
   1296.6218704578193        6.8339820371596467       -200.39844069915162        14351.279247517485     
   1316.6218704578193        6.7826418945984308       -201.05360085463408        14552.332848372118     
   1336.6218704578193        6.7319773905884670       -201.60023317447806        14753.933081546596     
   1356.6218704578193        6.6820506490696800       -202.03722892085284        14955.970310467450     
   1376.6218704578193        6.6329085546872371       -202.37000965827625        15158.340320125726     
   1396.6218704578193        6.5845799242538314       -202.60901729632593        15360.949337422053     
   1416.6218704578193        6.5370739507640518       -202.76874238319556        15563.718079805249     
   1436.6218704578193        6.4903785887977961       -202.86758184660587        15766.585661651854     
   1456.6218704578193        6.4444571235583341       -202.92904766376518        15969.514709315619     
   1476.6218704578193        6.3992394639759169       -202.98579520972856        16172.500504525347     
   1492.6218704578193        6.3634496449845983       -203.06062733672644        16375.561131862074     
   1501.3053904578194        6.3441252732900022       -203.11642467390607        16578.677556535979     
   1510.5099216578194        6.3237313903509911       -203.20157411223533        16781.879130648213     
   1520.2667247298193        6.3021892617621225       -203.32711961660610        16985.206250264819     
