 #              _____________________  _______________________             #
 #              ___  __ \__  __ \_  / / /_  /___  ____/_  ___/             #
 #              __  / / /_  /_/ /  / / /_  __/_  __/  _____ \              #
 #              _  /_/ /_  _, _// /_/ / / /_ _  /___  ____/ /              #
 #              /_____/ /_/ |_| \____/  \__/ /_____/  /____/               #
 #                                                                         #
  
 #        time                      T            heat flux [W.L-2]   in    x              directions   cumulative flux
 #-----------------------------------------------------------------------------------------------

   0.0000000000000000        10.000000000000000       -0.0000000000000000        0.0000000000000000     
   1.0000000000000000        9.4274815285403655       -176.64146259412195        176.64146259412195     
   1.9540000000000002        8.9269234651585165       -326.46445017009052        503.10591276421246     
   2.8641160000000001        8.4868436919421679       -454.16473378854698        957.27064655275944     
   3.8288389600000006        8.0568828581806304       -574.69065436155154        1531.9613009143109     
   4.8514452976000007        7.6379572888722986       -687.66019721423527        2219.6214981285461     
   5.9354080154560007        7.2308446977625653       -792.77187030832613        3012.3933684368722     
   7.0844084963833609        6.8361707821070192       -889.81020957798694        3902.2035780148590     
   8.3023490061663630        6.4543992691415859       -978.64936348459833        4880.8529414994573     
   9.5933659465363448        6.0858259379674173       -1059.2545364498806        5940.1074779493374     
   10.961843903328527        5.7305770051037985       -1131.6811425915109        7071.7886205408486     
   12.412430537528239        5.3886120911717770       -1196.0716092849300        8267.8602298257792     
   13.950052369779934        5.0597317871560392       -1252.6498709787652        9520.5101008045440     
   15.579931511966731        4.7435896219163070       -1301.7137021445881        10822.223802949133     
   17.307603402684734        4.4397080114871841       -1343.6251474556598        12165.848950404792     
   19.138935606845820        4.1474975607473024       -1378.7994093594668        13544.648359764258     
   21.080147743256571        3.8662789057006863       -1407.6926397575126        14952.340999521770     
   23.137832607851966        3.5953061457242970       -1430.7891455081144        16383.130145029885     
   25.318978564323086        3.3337908331889934       -1448.5885501807061        17831.718695210591     
   27.630993278182473        3.0809254723038131       -1461.5934523720944        19293.312147582685     
   30.081728874873424        2.8359055338033716       -1470.2980823800247        20763.610229962709     
   32.679508607365833        2.5979491146537406       -1475.1783860154239        22238.788615978134     
   35.433155123807786        2.3663135530153392       -1476.6838622715204        23715.472478249656     
   38.352020431236255        2.1403085328509626       -1475.2313590741721        25190.703837323828     
   41.446017657110431        1.9193054597046233       -1471.2008993494080        26661.904736673237     
   44.725654716537058        1.7027431367375785       -1464.9334801785922        28126.838216851829     
   48.202069999529286        1.4901299957438907       -1456.7306725080732        29583.568889359904     
   51.887070199501046        1.2810433222149946       -1446.8557575361117        31030.424646896015     
   55.793170411471110        1.0751260426074152       -1435.5360752427248        32465.960722138741     
   59.933636636159378       0.87208170884432334       -1422.9662334340703        33888.926955572810     
   64.322530834328944       0.67166832040660118       -1409.3118309738293        35298.238786546637     
   68.974758684388689       0.47369157581327492       -1394.7133817824745        36692.952168329110     
   73.906120205452012       0.27799805590866822       -1379.2901792545117        38072.242347583619     
   79.133363417779137        8.4468727253177001E-002  -1363.1439051690627        39435.386252752680     
   84.674241222845893      -0.10698696842907918       -1397.1893248230458        40832.575577575728     
   90.547571696216650      -0.29643628879802675       -1526.5074639419363        42359.083041517661     
   95.528155937635049      -0.44413880243834780       -1567.7951772843930        43926.878218802056     
   98.231218617137642      -0.51734437639896180       -1550.6782767523828        45477.556495554440     
   101.09646505741040      -0.51821029378334516       -1543.2463331514220        47020.802828705862     
   104.13362628409952      -0.51921366230751365       -1534.8447546093182        48555.647583315178     
   107.35301718438998      -0.52038587038920714       -1525.3919559445992        50081.039539259778     
   110.76557153869787      -0.52176739089095914       -1514.7961158198741        51595.835655079652     
   114.38287915426423      -0.52341094982213876       -1502.9536463184477        53098.789301398101     
   118.21722522676458      -0.52538604831982383       -1489.7475338799002        54588.536835277999     
   122.28163206361495      -0.52778556103668262       -1475.0456310857217        56063.582466363718     
   126.58990331067633      -0.53073560962907829       -1458.6991021606411        57522.281568524362     
   131.15667083256142      -0.53441077773933621       -1440.5414774949386        58962.823046019301     
   135.99744440575961      -0.53905839493379248       -1420.3892950741640        60383.212341093466     
   141.12866439334968      -0.54503897697247350       -1398.0464176668138        61781.258758760276     
   146.56775758019515      -0.55289716556619928       -1373.3165767750354        63154.575335535308     
   152.33319635825134      -0.56349448032150606       -1346.0344942689765        64500.609829804285     
   158.44456146299092      -0.57827902729095304       -1316.1408298154226        65816.750659619705     
   164.92260847401488      -0.59989226671036289       -1283.8619241205865        67100.612583740294     
   171.78933830570026      -0.63376245265973596       -1250.2226425151696        68350.835226255469     
   179.06807192728678      -0.69321695533140448       -1218.7239986452298        69569.559224900702     
   186.78352956616848      -0.97831836727454924       -1245.2414391667853        70814.800664067487     
   194.49898720505018       -1.3127487259977579       -1282.6529309778732        72097.453595045357     
   202.67737230226479       -1.6101147575825783       -1300.5467178808417        73398.000312926204     
   205.51805912463939       -1.6880775021459760       -1297.8223407936803        74695.822653719879     
   208.52918715635647       -1.6882038350078181       -1299.8382613808253        75995.660915100700     
   211.72098286997658       -1.6884926906082049       -1301.3258600297313        77296.986775130426     
   215.10428632641390       -1.6889499605214466       -1302.3030477193977        78599.289822849823     
   218.69058799023745       -1.6895774737036469       -1302.8069492058676        79902.096772055695     
   222.49206775389041       -1.6903738858003168       -1302.8864537163231        81204.983225772012     
   226.52163630336256       -1.6913360324566893       -1302.5940610859643        82507.577286857981     
   230.79297896580303       -1.6924605493435620       -1301.9785074603105        83809.555794318294     
   235.32060218798992       -1.6938131922242372       -1300.9353509407774        85110.491145259075     
   240.11988280350803       -1.6953230387767255       -1299.6598247254692        86410.150969984548     
   245.20712025595722       -1.6969997863610620       -1298.1499058481099        87708.300875832661     
   250.59959195555336       -1.6988595104011908       -1296.3891617858385        89004.690037618493     
   256.31561195712527       -1.7009257641677833       -1294.3470724249271        90299.037110043413     
   262.37459315879147       -1.7032311031344429       -1291.9781899987563        91591.015300042171     
   268.79711323255765       -1.7058194625722571       -1289.2193412812896        92880.234641323463     
   275.60498451074983       -1.7087500051434494       -1285.9852863904289        94166.219927713886     
   282.82132806563351       -1.7121034120699954       -1282.1609760525228        95448.380903766403     
   290.47065223381026       -1.7159924743999209       -1277.5888369408760        96725.969740707282     
   298.57893585207756       -1.7205806852178640       -1272.0479971115276        97998.017737818809     
   307.17371648744091       -1.7261169604056210       -1265.2194400944859        99263.237177913295     
   316.28418396092610       -1.7330060758417671       -1256.6250304061086        100519.86220831941     
   325.94127948282039       -1.7419676285591554       -1245.5149355969495        101765.37714391635     
   336.17780073602830       -1.7544478978146909       -1230.6471463039106        102996.02429022026     
   347.02851326442874       -1.7739048962954533       -1209.8392922231210        104205.86358244337     
   358.53026854453316       -1.8110162428647270       -1179.2075595388267        105385.07114198220     
   370.72212914144387       -2.0851006378139587       -1132.6922132629018        106517.76335524510     
   382.91398973835459       -2.4446364442725561       -1115.7249185501564        107633.48827379526     
   395.83736197107993       -2.4623944715576012       -1119.3175071909247        108752.80578098618     
   406.17605975726019       -2.4778304075950381       -1121.3295839220571        109874.13536490823     
   417.13507941061130       -2.4940686883949432       -1122.7280461466687        110996.86341105490     
   428.09409906396240       -2.5127714809078681       -1122.7589078386227        112119.62231889353     
   439.05311871731351       -2.5071519608932884       -1128.2772891223453        113247.89960801587     
   450.66967954986569       -2.5187002388389450       -1129.9949480916521        114377.89455610752     
   462.98323403237100       -2.5333079432620496       -1130.6155914200217        115508.51014752754     
   476.03560178382662       -2.5501767173463921       -1130.4389368984587        116638.94908442600     
   489.87111160036960       -2.5699248090246147       -1128.9478494717691        117767.89693389776     
   504.53675200590516       -2.5940088682416844       -1125.0573421665686        118892.95427606432     
   520.08233083577284       -2.6262643175532769       -1116.5347117534791        120009.48898781781     
   536.56064439543252       -2.6816127145462487       -1098.3769742009717        121107.86596201878     
   550.53425429402398       -2.7587656919014414       -1075.3247231515661        122183.19068517035     
   554.19735228728030       -2.8034195946247853       -1047.7813094070295        123230.97199457738     
   558.08023616013202       -2.8334922129103624       -1059.5699594326516        124290.54195401004     
   562.19609306535483       -2.8516691834439984       -1066.1926988916559        125356.73465290169     
   566.55890138489099       -2.8621491745343874       -1069.3265987548441        126426.06125165655     
   571.18347820359941       -2.8684126757026180       -1070.3955785653916        127496.45683022194     
   576.08552963143029       -2.8728731950555089       -1070.4120261137955        128566.86885633574     
   581.28170414493104       -2.8769173587992194       -1069.9657505339749        129636.83460686971     
   586.78964912924187       -2.8812135857052810       -1069.3327594894286        130706.16736635914     
   592.62807081261133       -2.8860446723570647       -1068.6075979161997        131774.77496427533     
   598.81679779698288       -2.8915356335875346       -1067.7983949772465        132842.57335925259     
   605.37684840041675       -2.8977763922200279       -1066.8777450323187        133909.45110428490     
   612.33050204005667       -2.9048810048336451       -1065.8038248639471        134975.25492914885     
   619.70137489807496       -2.9130195775421277       -1064.5254357989465        136039.78036494780     
   627.51450012757437       -2.9224459098473128       -1062.9787211785408        137102.75908612635     
   635.79641287084371       -2.9335366577612061       -1061.0782670432548        138163.83735316960     
   644.57524037870928       -2.9468587578981653       -1058.7014320651879        139222.53878523479     
   653.88079753704676       -2.9657707666978377       -1054.5447069815502        140277.08349221633     
   663.74468812488453       -2.9926784708684022       -1048.7174083127425        141325.80090052908     
   674.20041214799255       -3.0344041513459992       -1039.3631956462943        142365.16409617537     
   685.28347961248710       -3.1102335198097903       -1021.3797619980047        143386.54385817339     
   697.03153112485131       -3.2967367745475498       -973.99277128968015        144360.53662946308     
   701.11210873559708       -3.3534820848459677       -954.06798384991657        145314.60461331299     
   705.43752100298764       -3.3905233505285777       -967.65481631406783        146282.25942962704     
   710.02245800642163       -3.4142677935647407       -975.69998798629342        147257.95941761334     
   714.88249123006165       -3.4296254909598716       -980.19075152431583        148238.15016913766     
   720.03412644712000       -3.4399161054937819       -982.46416932118780        149220.61433845884     
   725.49485977720190       -3.4473144634054886       -983.38810508329721        150204.00244354212     
   731.28323710708867       -3.4532041815916421       -983.50462289648851        151187.50706643861     
   737.41891707676871       -3.4584448883787027       -983.13799750543819        152170.64506394404     
   743.92273784462952       -3.4635652742158287       -982.47223747154385        153153.11730141559     
   750.81678785856195       -3.4688969312750242       -981.60409284799471        154134.72139426359     
   758.12448087333041       -3.4746639822419567       -980.57747464743204        155115.29886891102     
   765.87063546898491       -3.4810419569804196       -979.40448399306638        156094.70335290409     
   774.08155934037870       -3.4881971754456615       -978.07717797035787        157072.78053087444     
   782.78513864405613       -3.4963157832214717       -976.57302739919828        158049.35355827364     
   792.01093270595425       -3.5056301827872165       -974.85587233262311        159024.20943060625     
   801.79027441156620       -3.5164505644141224       -972.87304353814272        159997.08247414438     
   812.15637661951484       -3.5292116450435240       -970.54799957832347        160967.63047372270     
   823.14444495994042       -3.5463018185264592       -966.92362841782847        161934.55410214054     
   834.79179740079155       -3.5695308116509361       -962.40513197192809        162896.95923411247     
   847.13799098809375       -3.6027260263343708       -955.95733862930661        163852.91657274179     
   860.22495619063409       -3.6560953067024902       -945.26315343387319        164798.17972617567     
   874.09713930532689       -3.8066407606324653       -910.36130294704390        165708.54102912272     
   881.19969706004963       -3.8804954027181493       -889.60142688366363        166598.14245600638     
   888.72840828005565       -3.9128992845867598       -902.89123861935786        167501.03369462574     
   896.70884217326204       -3.9104835783716623       -895.18572273737948        168396.21941736311     
   905.16810210006088       -3.9137425981940530       -887.76095601168390        169283.98037337480     
   914.13491762246758       -3.9245801904272386       -882.56536927688819        170166.54574265168     
   923.63974207621868       -3.9401518799988189       -878.73948167856383        171045.28522433023     
   933.71485599719495       -3.9583805427051466       -875.50369750551363        171920.78892183574     
   944.39447675342967       -3.9788842957045363       -872.00124966337421        172792.79017149913     
   955.71487475503852       -4.0013302387190288       -868.60317434430112        173661.39334584342     
   967.71449663674389       -4.0254480008450395       -865.07219469862650        174526.46554054203     
   980.43409583135167       -4.0514340780310887       -861.29015994567669        175387.75570048770     
   993.91687097763588       -4.0798688058726249       -857.12753268888707        176244.88323317660     
   1008.2086126326972       -4.1120984548526671       -852.31874677232815        177097.20197994894     
   1023.3578587870621       -4.1517762585504734       -846.13595662834564        177943.33793657727     
   1039.4160597106888       -4.2109750907414067       -836.16838945367749        178779.50632603094     
   1056.4377526897333       -4.2629608790971627       -830.01336766662644        179609.51969369757     
   1073.4594456687778       -4.2943493004209969       -827.13635086560157        180436.65604456316     
   1091.5024402265649       -4.3168863806942896       -824.87149767722178        181261.52754224039     
   1110.6280144578193       -4.3350999276298898       -822.73980599148729        182084.26734823189     
   1130.6280144578193       -4.3533322992771204       -820.24582505004889        182904.51317328194     
   1150.6280144578193       -4.3747639433766441       -816.97237331593124        183721.48554659786     
   1170.6280144578193       -4.4046785463994036       -812.20457441326221        184533.69012101111     
   1190.6280144578193       -4.4560023462733076       -803.70703416581762        185337.39715517694     
   1206.6280144578193       -4.5310730308442899       -788.01847803814053        186125.41563321507     
   1222.6280144578193       -4.5230675020099165       -797.16325643963762        186922.57888965472     
   1239.5880144578193       -4.5125196096518776       -798.80712164874956        187721.38601130346     
   1257.5656144578193       -4.5225466172884330       -795.78216748981345        188517.16817879328     
   1276.6218704578193       -4.5374656179516197       -793.45270150515717        189310.62088029843     
   1296.6218704578193       -4.5527192334747806       -791.35999661580172        190101.98087691423     
   1316.6218704578193       -4.5672783726074195       -789.27469408722413        190891.25557100144     
   1336.6218704578193       -4.5818997320523138       -787.14415200930330        191678.39972301075     
   1356.6218704578193       -4.5970997291119202       -784.90476814372130        192463.30449115447     
   1376.6218704578193       -4.6132976229440938       -782.50021626967646        193245.80470742413     
   1396.6218704578193       -4.6309549029265611       -779.86136669411326        194025.66607411826     
   1416.6218704578193       -4.6507397573059990       -776.88117768848690        194802.54725180674     
   1436.6218704578193       -4.6738114440625154       -773.36762935500440        195575.91488116173     
   1456.6218704578193       -4.7025050436124332       -768.92507730188231        196344.83995846362     
   1476.6218704578193       -4.7423673253765770       -762.59390545390136        197107.43386391751     
   1492.6218704578193       -4.8047161708126751       -749.44228502845169        197856.87614894597     
   1501.3053904578194       -4.8384123868441957       -740.43975012872750        198597.31589907469     
   1510.5099216578194       -4.8725720813715467       -736.19519890958793        199333.51109798427     
   1520.2667247298193       -4.9031531239941746       -733.45395271078507        200066.96505069506     
