 #              _____________________  _______________________             #
 #              ___  __ \__  __ \_  / / /_  /___  ____/_  ___/             #
 #              __  / / /_  /_/ /  / / /_  __/_  __/  _____ \              #
 #              _  /_/ /_  _, _// /_/ / / /_ _  /___  ____/ /              #
 #              /_____/ /_/ |_| \____/  \__/ /_____/  /____/               #
 #                                                                         #
  
 #        time                      T            heat flux [W.L-2]   in    x              directions   cumulative flux
 #-----------------------------------------------------------------------------------------------

   0.0000000000000000        10.000000000000000       -0.0000000000000000        0.0000000000000000     
   1.0000000000000000        9.4274556195231192       -176.56559877024213        176.56559877024213     
   1.9540000000000002        8.9268228575785731       -326.21858678896587        502.78418555920803     
   2.8641160000000001        8.4866162678494277       -453.71419706435529        956.49838262356332     
   3.8288389600000006        8.0564561600989109       -574.01002658813536        1530.5084092116986     
   4.8514452976000007        7.6372509786700205       -686.74125638408759        2217.2496655957862     
   5.9354080154560007        7.2297753673621896       -791.61925239327184        3008.8689179890580     
   7.0844084963833609        6.8346566279220111       -888.43734976985286        3897.3062677589110     
   8.3023490061663630        6.4523644068963950       -977.07484324310008        4874.3811110020106     
   9.5933659465363448        6.0832041517021880       -1057.4989375572127        5931.8800485592237     
   10.961843903328527        5.7273147559138806       -1129.7644800332050        7061.6445285924292     
   12.412430537528239        5.3846706560514592       -1194.0113830824525        8255.6559116748813     
   13.950052369779934        5.0550884533380165       -1250.4597446559396        9506.1156563308214     
   15.579931511966731        4.7382379232733456       -1299.4027839860960        10805.518440316917     
   17.307603402684734        4.4336570559762167       -1341.1978218198244        12146.716262136741     
   19.138935606845820        4.1407705562119057       -1376.2556406950616        13522.971902831803     
   21.080147743256571        3.8589110404451539       -1405.0286531292143        14928.000555961018     
   23.137832607851966        3.5873420157200790       -1427.9983755297092        16355.998931490727     
   25.318978564323086        3.3252816264549843       -1445.6627460075506        17801.661677498276     
   27.630993278182473        3.0719261215088207       -1458.5238299571190        19260.185507455393     
   30.081728874873424        2.8264720309902649       -1467.0764260429876        20727.261933498379     
   32.679508607365833        2.5881361495929305       -1471.7980183520322        22199.059951850410     
   35.433155123807786        2.3561725930797670       -1473.1404228059414        23672.200374656350     
   38.352020431236255        2.1298864125782959       -1471.5233557033346        25143.723730359685     
   41.446017657110431        1.9086434979119160       -1467.3300202463611        26611.053750606046     
   44.725654716537058        1.6918767534157566       -1460.9046752350794        28071.958425841127     
   48.202069999529286        1.4790887642533619       -1452.5520308045657        29524.510456645694     
   51.887070199501046        1.2698513673284211       -1442.5382195274490        30967.048676173144     
   55.793170411471110        1.0638026827699221       -1431.0930248528773        32398.141701026023     
   59.933636636159378       0.86064224100126863       -1418.4130163036677        33816.554717329687     
   64.322530834328944       0.66012485580740066       -1404.6652415596900        35221.219958889378     
   68.974758684388689       0.46205385230276663       -1389.9911551582718        36611.211114047648     
   73.906120205452012       0.26627417294902822       -1374.5105147807938        37985.721628828440     
   79.133363417779137        7.2665771042846883E-002  -1358.3250401071100        39344.046668935553     
   84.674241222845893      -0.11886242346586373       -1392.7933983026726        40736.840067238227     
   90.547571696216650      -0.30837780089735345       -1378.4527309286934        42115.292798166920     
   96.773301997989648      -0.49592857005393887       -1328.2449242313660        43443.537722398287     
   99.476364677492242      -0.56726301861598172       -1310.8129709984073        44754.350693396693     
   102.34161111776500      -0.54691105499754977       -1297.2936018232995        46051.644295219994     
   105.37877234445412      -0.53196534479909308       -1261.3521124555079        47312.996407675499     
   108.59816324474458      -0.52153889479180748       -1228.7630705619608        48541.759478237458     
   112.01071759905247      -0.51470052186901116       -1198.9246574629358        49740.684135700394     
   115.62802521461883      -0.51066307587230420       -1171.3141153763622        50911.998251076759     
   119.46237128711918      -0.50881685142689059       -1145.5200910584958        52057.518342135256     
   123.52677812396955      -0.50872231305582505       -1121.2437048506415        53178.762046985896     
   127.83504937103093      -0.51008382690424137       -1098.2822550703547        54277.044302056252     
   132.40181689291600      -0.51272423779625220       -1076.5115778089189        55353.555879865169     
   137.24259046611419      -0.51656622973558575       -1055.8723442261960        56409.428224091367     
   142.37381045370427      -0.52162218524378123       -1036.3616151013962        57445.789839192767     
   147.81290364054973      -0.52799321637851560       -1018.0297162551204        58463.819555447888     
   153.57834241860593      -0.53587818289453493       -1000.9822283916228        59464.801783839510     
   159.68970752334550      -0.54559379198089564       -985.38658764958677        60450.188371489094     
   166.16775453436946      -0.55760602765235423       -947.02189256277097        61397.210264051864     
   173.03448436605484      -0.57256834045905958       -932.75090002726813        62329.961164079134     
   180.31321798764137      -0.59134712599652428       -920.76248996009667        63250.723654039233     
   188.02867562652307      -0.61498281746751760       -911.55712019442421        64162.280774233659     
   196.20706072373767      -0.64450259845461144       -905.52129870890440        65067.802072942563     
   204.87614892678516      -0.68058102694773792       -902.62198206463972        65970.424055007199     
   214.06538242201549      -0.74115165090963808       -907.89558563907735        66878.319640646281     
   223.80596992695965      -0.87755641589783551       -934.09364595090074        67812.413286597177     
   234.13099268220046      -0.94742926415952911       -935.24626829027216        68747.659554887447     
   245.07551680275571       -1.0420506149492066       -939.27544099789907        69686.934995885342     
   256.67671237054429       -1.1829941820388123       -951.33985154062952        70638.274847425972     
   268.97397967240016       -1.4077006033802186       -980.35585743087233        71618.630704856841     
   282.00908301236740       -1.3566987887484083       -922.04630697279504        72540.677011829641     
   295.82629255273270       -1.3165306666177927       -874.23620056890081        73414.913212398547     
   310.47253466551990       -1.2857731804100396       -835.22612491112818        74250.139337309680     
   325.99755130507430       -1.2648094943790176       -804.54209492406551        75054.681432233745     
   342.45406894300197       -1.2551897731102946       -782.53732897778912        75837.218761211538     
   359.89797763920529       -1.2594767828360167       -770.23234375629181        76607.451104967826     
   378.38852085718082       -1.2811754853837753       -769.14676340478798        77376.597868372613     
   397.98849666823492       -1.3241377321725478       -780.72850125256070        78157.326369625167     
   418.76447102795225       -1.3907198259246403       -804.98524593577133        78962.311615560931     
   440.78700384925264       -1.6015471493000559       -882.77607158837668        79845.087687149309     
   462.80953667055303       -1.7422160439774836       -927.50159439567074        80772.589281544977     
   486.15342146113142       -1.8930943490236416       -966.62866373597103        81739.217945280951     
   510.89793933914450       -2.1123994094622094       -1007.4892093008463        82746.707154581803     
   537.12712828983842       -2.1987286750607971       -981.86383678941843        83728.570991371220     
   563.35631724053235       -2.2801605681515955       -980.14422616477441        84708.715217535995     
   591.15925752826786       -2.4307349808723466       -1019.6264258889959        85728.341643424996     
   620.63037423326750       -2.7012760082827243       -1110.3994524863494        86838.741095911348     
   650.10149093826715       -2.8884388331411088       -1150.1939881447838        87988.935084056138     
   679.57260764326679       -2.9883007475468291       -1176.0699564376555        89165.005040493794     
   710.81199135056647       -3.0672047567559799       -1187.4236935768170        90352.428734070607     
   743.92573808030409       -3.1350675165103850       -1186.4240410966545        91538.852775167266     
   779.02630961382602       -3.2058133826035560       -1175.3675896795553        92714.220364846828     
   816.23291543935920       -3.2923129692101618       -1158.4922386362853        93872.712603483116     
   855.67191761442439       -3.3533655493609698       -1152.8781147225093        95025.590718205625     
   895.11091978948957       -3.3917870769231948       -1146.6665059430620        96172.257224148692     
   936.91626209505864       -3.4202100069801729       -1137.8115380452189        97310.068762193914     
   981.22992493896186       -3.4554223490375953       -1124.5317471301073        98434.600509324024     
   1028.2024075534994       -3.5116133797912572       -1107.0736663646487        99541.674175688677     
   1077.9932391249090       -3.6809891127591468       -1069.8105329173293        100611.48470860600     
   1127.7840706963186       -3.7792476045355348       -1053.3756083727901        101664.86031697880     
   1177.5749022677282       -3.8619382759179555       -1035.9475992457672        102700.80791622457     
   1227.3657338391379       -3.9520129604105763       -1015.7452900166661        103716.55320624124     
   1269.5883590116932       -4.0505117531624419       -991.94344194844564        104708.49664818968     
   1314.3443416946020       -4.1603272773190128       -973.52417849704625        105682.02082668673     
   1359.1003243775108       -4.2983682641008745       -947.71845724418790        106629.73928393092     
   1406.5416660213941       -4.4026999184519786       -931.83683203780549        107561.57611596872     
   1456.8294881639104       -4.4888768475494985       -917.78652309440736        108479.36263906313     
   1510.1345796349776       -4.5667529277182295       -905.17168834845234        109384.53432741157     
   1566.6379765943088       -4.6544396027271588       -891.32903165721416        110275.86335906878     
   1626.5315773712000       -4.7095907481460006       -880.95713139951056        111156.82049046829     
   1690.0187941947047       -4.7458881295109920       -874.31288205124815        112031.13337251954     
   1757.3152440276197       -4.7767851088759787       -869.19694363140138        112900.33031615094     
   1828.6494808505095       -4.8126550083289175       -863.65374220441117        113763.98405835535     
   1904.2637718827727       -4.8661486054152965       -856.05527915901143        114620.03933751436     
   1984.4149203769718       -4.9608760937706240       -843.54648573869292        115463.58582325306     
   2069.3751377808230       -5.0267999057565333       -830.30837576143256        116293.89419901450     
   2159.4329682289049       -5.1032923563386756       -818.76429750856687        117112.65849652306     
   2254.8942685038719       -5.1971872941093160       -804.75171398839609        117917.41021051146     
   2350.3555687788389       -5.3403762127075218       -785.59876321071897        118703.00897372217     
   2445.8168690538059       -5.4438987609733562       -764.46021826355127        119467.46919198573     
   2547.0058473452709       -5.5284409384321354       -748.88454907238929        120216.35374105812     
   2654.2661643342240       -5.5944346386440769       -736.29456178033570        120952.64830283845     
   2767.9621003425141       -5.6407378468291043       -726.55233054709788        121679.20063338555     
   2888.4797925113016       -5.6856872216539642       -719.08294535303810        122398.28357873858     
   3016.2285462102163       -5.7290155744859002       -711.83603945668528        123110.11961819527     
   3151.6422251310660       -5.8033216295877033       -703.38538816997789        123813.50500636525     
   3295.1807247871666       -5.8629113551557506       -691.73303010387997        124505.23803646912     
   3447.3315344226330       -5.9426357219398591       -681.09756880869031        125186.33560527781     
   3599.4823440580994       -6.0660753655550703       -666.05142673757007        125852.38703201538     
   3751.6331536935659       -6.1400174108521650       -647.52665914527529        126499.91369116066     
   3903.7839633290323       -6.2046363366821300       -635.64720935688160        127135.56090051755     
   4065.0638215426270       -6.2603626493193385       -625.41438836598729        127760.97528888354     
   4236.0204712490377       -6.3016046696045827       -616.73273455591800        128377.70802343945     
   4417.2345199378324       -6.3419925722573485       -610.04817511639772        128987.75619855586     
   4609.3214115479550       -6.4067301570029347       -602.66639077044749        129590.42258932631     
   4801.4083031580776       -6.4588799393509486       -592.26605511727291        130182.68864444358     
   5001.4083031580776       -6.5356824886549303       -582.98262310387952        130765.67126754746     
   5201.4083031580776       -6.6114430728951206       -570.24548979822862        131335.91675734569     
   5381.4083031580776       -6.6565235452094367       -558.43892426575724        131894.35568161146     
   5572.2083031580778       -6.7104220788388824       -550.78031727047085        132445.13599888192     
   5772.2083031580778       -6.7484170136045929       -542.40539221563427        132987.54139109756     
   5972.2083031580778       -6.7808797248290436       -536.26541678333456        133523.80680788090     
   6172.2083031580778       -6.8193509578854350       -530.73746857983042        134054.54427646074     
   6372.2083031580778       -6.8510789808208870       -524.52903534679376        134579.07331180753     
   6572.2083031580778       -6.8885020029788135       -519.11071891919846        135098.18403072673     
   6732.2083031580778       -6.9128970649772707       -513.13250097366779        135611.31653170040     
   6901.8083031580782       -6.9553773637245140       -508.52682232603058        136119.84335402644     
   7071.4083031580785       -6.9922190601614291       -501.67202179636246        136621.51537582281     
   7241.0083031580789       -7.0304315963759647       -495.52551913277671        137117.04089495560     
   7420.7843031580787       -7.0630718886500787       -489.44208099268775        137606.48297594828     
   7611.3468631580790       -7.0932000982977028       -484.18519334024074        138090.66816928852     
   7811.3468631580790       -7.1203055213521154       -479.32693333357741        138569.99510262208     
   8011.3468631580790       -7.1422955517374547       -474.98240653344732        139044.97750915552     
   8211.3468631580799       -7.1658913211868454       -471.30928752907715        139516.28679668461     
   8411.3468631580799       -7.1913921090317130       -467.34589150451728        139983.63268818913     
   8611.3468631580799       -7.2165351387569823       -463.12645220969887        140446.75914039882     
   8811.3468631580799       -7.2407370257817245       -458.99633373974916        140905.75547413857     
   9011.3468631580799       -7.2676901639466891       -454.92287821360839        141360.67835235217     
   9211.3468631580799       -7.2973716536691269       -450.37642736035292        141811.05477971252     
   9411.3468631580799       -7.3279538284279546       -445.44343462402003        142256.49821433655     
   9611.3468631580799       -7.3533054623075547       -440.52369404105991        142697.02190837762     
   9811.3468631580799       -7.3765484527007761       -436.39361979702636        143133.41552817464     
   10011.346863158080       -7.3971235964218653       -432.62882190068137        143566.04435007530     
   10211.346863158080       -7.4161608627042304       -429.26869950568039        143995.31304958099     
   10411.346863158080       -7.4328785298870956       -426.18565281604765        144421.49870239705     
   10611.346863158080       -7.4504665846506395       -423.39975353046418        144844.89845592750     
   10811.346863158080       -7.4691731024597319       -420.45642486358622        145265.35488079107     
   11011.346863158080       -7.4872680487891374       -417.37493645737624        145682.72981724844     
   11211.346863158080       -7.5045176057728824       -414.41120795552155        146097.14102520398     
   11411.346863158080       -7.5215874511229579       -411.56455564542716        146508.70558084940     
   11611.346863158080       -7.5412542132616318       -408.67266399171689        146917.37824484112     
   11811.346863158080       -7.5620020925803262       -405.38941265643143        147322.76765749755     
   12011.346863158080       -7.5827167877569561       -401.95422893626738        147724.72188643381     
   12211.346863158080       -7.6019183399552013       -398.57165767487169        148123.29354410869     
   12411.346863158080       -7.6187569251749725       -395.46240159836680        148518.75594570706     
   12611.346863158080       -7.6341154592235352       -392.72159742297566        148911.47754313002     
   12811.346863158080       -7.6482010662024722       -390.21835721178223        149301.69590034182     
   13011.346863158080       -7.6610954987090309       -387.92231742896513        149689.61821777077     
   13211.346863158080       -7.6739592109320203       -385.79377317275708        150075.41199094351     
   13411.346863158080       -7.6873844366008317       -383.65074567753578        150459.06273662104     
   13611.346863158080       -7.7003493880024028       -381.44147680696665        150840.50421342801     
   13811.346863158080       -7.7129231726359713       -379.30989021447118        151219.81410364248     
   14011.346863158080       -7.7251091670572940       -377.24421243915577        151597.05831608165     
   14211.346863158080       -7.7374141621289914       -375.22680295098246        151972.28511903263     
   14411.346863158080       -7.7511460151429352       -373.15473818672660        152345.43985721935     
   14611.346863158080       -7.7658223476300625       -370.85821350049412        152716.29807071984     
   14811.346863158080       -7.7808561003488448       -368.42093263917729        153084.71900335903     
   15011.346863158080       -7.7955138386587679       -365.94602840425995        153450.66503176329     
   15211.346863158080       -7.8092821098833092       -363.54794128863244        153814.21297305191     
