 #              _____________________  _______________________             #
 #              ___  __ \__  __ \_  / / /_  /___  ____/_  ___/             #
 #              __  / / /_  /_/ /  / / /_  __/_  __/  _____ \              #
 #              _  /_/ /_  _, _// /_/ / / /_ _  /___  ____/ /              #
 #              /_____/ /_/ |_| \____/  \__/ /_____/  /____/               #
 #                                                                         #
  
 #        time                      T            heat flux [W.L-2]   in    x              directions   cumulative flux
 #-----------------------------------------------------------------------------------------------

   0.0000000000000000        10.000000000000000       -0.0000000000000000        0.0000000000000000     
   1.0000000000000000        10.000000000000000       -3.3892888495756747E-012   3.3892888495756747E-012
   1.9540000000000002        9.9999999999999982       -3.1068481121110355E-011   3.4457769970686033E-011
   2.8641160000000001        9.9999999999999876       -1.4743406495654191E-010   1.8189183492722794E-010
   3.8288389600000006        9.9999999999999289       -6.1402616324812677E-010   7.9591799817535471E-010
   4.8514452976000007        9.9999999999996980       -2.3030217732866744E-009   3.0989397714620290E-009
   5.9354080154560007        9.9999999999988738       -7.8247381907204098E-009   1.0923677962182440E-008
   7.0844084963833609        9.9999999999961666       -2.4385933272697313E-008   3.5309611234879756E-008
   8.3023490061663630        9.9999999999879119       -7.0522627737548618E-008   1.0583223897242837E-007
   9.5933659465363448        9.9999999999642988       -1.9112764704234178E-007   2.9695988601477018E-007
   10.961843903328527        9.9999999999005187       -4.8944098907113092E-007   7.8640087508590110E-007
   12.412430537528239        9.9999999997366906       -1.1923167946300559E-006   1.9787176697159570E-006
   13.950052369779934        9.9999999993342676       -2.7784943732498277E-006   4.7572120429657847E-006
   15.579931511966731        9.9999999983846664       -6.2222519190623411E-006   1.0979463962028127E-005
   17.307603402684734        9.9999999962238135       -1.3441901501307324E-005   2.4421365463335452E-005
   19.138935606845820        9.9999999914671616       -2.8101605554976555E-005   5.2522971018312004E-005
   21.080147743256571        9.9999999813110989       -5.7005909946236701E-005   1.0952888096454871E-004
   23.137832607851966        9.9999999602312375       -1.1246241158204704E-004   2.2199129254659575E-004
   25.318978564323086        9.9999999176173056       -2.1618508036843744E-004   4.3817637291503319E-004
   27.630993278182473        9.9999998335791513       -4.0558721566369269E-004   8.4376358857872588E-004
   30.081728874873424        9.9999996716818149       -7.4368736433867884E-004   1.5874509529174047E-003
   32.679508607365833        9.9999993666446336       -1.3343395213527066E-003   2.9217904742701115E-003
   35.433155123807786        9.9999988039724101       -2.3451079314265409E-003   5.2668984056966524E-003
   38.352020431236255        9.9999977869580050       -4.0408293753490159E-003   9.3077277810456674E-003
   41.446017657110431        9.9999959843718482       -6.8317101980725362E-003   1.6139437979118203E-002
   44.725654716537058        9.9999928492983301       -1.1340626545105526E-002   2.7480064524223729E-002
   48.202069999529286        9.9999874958749011       -1.8495027265298648E-002   4.5975091789522374E-002
   51.887070199501046        9.9999785160718826       -2.9649325680545451E-002   7.5624417470067817E-002
   55.793170411471110        9.9999637131513825       -4.6743709771228402E-002  0.12236812724129623     
   59.933636636159378        9.9999397222436546       -7.2504668147941639E-002  0.19487279538923785     
   64.322530834328944        9.9999014819647982      -0.11069098125742256       0.30556377664666040     
   68.974758684388689        9.9998415148080220      -0.16638625480158700       0.47195003144824743     
   73.906120205452012        9.9997489690834822      -0.24633514849208041       0.71828517994032781     
   79.133363417779137        9.9996083726284244      -0.35931529067296408        1.0776004706132918     
   84.674241222845893        9.9993980497148716      -0.51653067258853658        1.5941311432018284     
   90.547571696216650        9.9990881589479930      -0.73200551752713672        2.3261366607289649     
   96.773301997989648        9.9986383227205984       -1.0229508837797543        3.3490875445087189     
   99.476364677492242        9.9984181330119490       -1.1616749479703095        4.5107624924790279     
   102.34161111776500        9.9981543068277325       -1.3233636967910491        5.8341261892700773     
   105.37877234445412        9.9978374376656785       -1.5120095464506511        7.3461357357207282     
   108.59816324474458        9.9974560425014634       -1.7322702184753558        9.0784059541960840     
   112.01071759905247        9.9969961197498378       -1.9895602968513839        11.067966251047467     
   115.62802521461883        9.9964406242714734       -2.2901480484004519        13.358114299447919     
   119.46237128711918        9.9957688486788889       -2.6412549939536500        15.999369293401569     
   123.52677812396955        9.9949557007561758       -3.0511545128456672        19.050523806247238     
   127.83504937103093        9.9939708683265085       -3.5292643398612307        22.579788146108470     
   132.40181689291600        9.9927778656864117       -4.0862262324583449        26.666014378566814     
   137.24259046611419        9.9913329600825485       -4.7339644626372515        31.399978841204067     
   142.37381045370427        9.9895839828922703       -5.4857132968221851        36.885692138026251     
   147.81290364054973        9.9874690383316533       -6.3560024973550027        43.241694635381251     
   153.57834241860593        9.9849151326229517       -7.3605893747173567        50.602284010098607     
   159.68970752334550        9.9818367583318430       -8.5163263076503739        59.118610317748981     
   166.16775453436946        9.9781344814648278       -9.8409541533545095        68.959564471103491     
   173.03448436605484        9.9736935920246577       -11.352814722139071        80.312379193242563     
   180.31321798764137        9.9683828909146452       -13.070479479230633        93.382858672473191     
   188.02867562652307        9.9620536960362891       -15.012296689995758        108.39515536246896     
   196.20706072373767        9.9545391567218253       -17.195865072913950        125.59102043538290     
   204.87614892678516        9.9456539667362289       -19.637448520871509        145.22846895625440     
   214.06538242201549        9.9351945576581304       -22.351356977266111        167.57982593352051     
   223.80596992695965        9.9229398146486787       -25.349353952997479        192.92917988651800     
   234.13099268220046        9.9086523094565671       -28.640148272648915        221.56932815916690     
   245.07551680275571        9.8920799874650900       -32.229028986741412        253.79835714590831     
   256.67671237054429        9.8729581545273124       -36.117727022131781        289.91608416804007     
   268.97397967240016        9.8510114504746440       -40.304641563748476        330.22072573178855     
   282.00908301236740        9.8259555586756306       -44.785321546589550        375.00604727837811     
   295.82629255273270        9.7974986888313254       -49.552893367683055        424.55894064606116     
   310.47253466551990        9.7653432159565909       -54.598121195090052        479.15706184115123     
   325.99755130507430        9.7291880796084556       -59.908944437099230        539.06600627825048     
   342.45406894300197        9.6887325470135348       -65.469549150887929        604.53555542913841     
   359.89797763920529        9.6436817376232344       -71.259193168349938        675.79474859748836     
   378.38852085718082        9.5937539900491924       -77.251066025591186        753.04581462307954     
   397.98849666823492        9.5386898323289628       -83.411434521775234        836.45724914485481     
   418.76447102795225        9.4782620236783295       -89.699273085462210        926.15652223031702     
   440.78700384925264        9.4122848991963135       -96.067170419376950        1022.2236926496939     
   462.80953667055303        9.3447496739560556       -102.12093313325282        1124.3446257829467     
   486.15342146113142        9.2718084550750088       -108.17570945345690        1232.5203352364035     
   510.89793933914450        9.1933823298252513       -114.19111517604287        1346.7114504124463     
   537.12712828983842        9.1094073430533911       -120.13982182359680        1466.8512722360431     
   563.35631724053235        9.0249013649172465       -125.69808634940124        1592.5493585854442     
   591.15925752826786        8.9350078450278847       -131.19721531049876        1723.7465738959429     
   620.63037423326750        8.8396181881078455       -136.63104043913842        1860.3776143350813     
   650.10149093826715        8.7443287375040946       -141.70577570730867        2002.0833900423900     
   679.57260764326679        8.6493134234363094       -146.44715097658710        2148.5305410189771     
   710.81199135056647        8.5490966818914806       -151.11744705386542        2299.6479880728425     
   743.92573808030409        8.4436467445503158       -155.68273427499892        2455.3307223478414     
   779.02630961382602        8.3329874178731771       -160.10555148892803        2615.4362738367695     
   816.23291543935920        8.2171773270311768       -164.35763917581698        2779.7939130125865     
   855.67191761442439        8.0962765635088356       -168.42707184783626        2948.2209848604225     
   895.11091978948957        7.9773283939159043       -172.11697479517812        3120.3379596556006     
   936.91626209505864        7.8534933529538140       -175.65457588723049        3295.9925355428309     
   981.22992493896186        7.7248395220874464       -179.01178416849274        3475.0043197113237     
   1028.2024075534994        7.5915719843385192       -182.12968849718470        3657.1340082085085     
   1077.9932391249090        7.4539738859335962       -184.96596823360852        3842.0999764421172     
   1127.7840706963186        7.3200967492073268       -187.39452381767273        4029.4945002597897     
   1177.5749022677282        7.1897788815286541       -189.52265178055731        4219.0171520403474     
   1227.3657338391379        7.0627230797039466       -191.44725359508004        4410.4644056354273     
   1269.5883590116932        6.9571917993085943       -192.94683996049591        4603.4112455959230     
   1314.3443416946020        6.8477505962254126       -194.37580869391559        4797.7870542898381     
   1359.1003243775108        6.7407362708045504       -195.62868563243828        4993.4157399222768     
   1406.5416660213941        6.6300852056028052       -196.74344173808814        5190.1591816603650     
   1456.8294881639104        6.5159794855955733       -197.68939206656154        5387.8485737269266     
   1510.1345796349776        6.3985853099377685       -198.46144949540846        5586.3100232223351     
   1566.6379765943088        6.2778326978317764       -199.13475977256078        5785.4447829948958     
   1626.5315773712000        6.1534952465086636       -199.77465203563725        5985.2194350305326     
   1690.0187941947047        6.0255195258720295       -200.34700580428427        6185.5664408348166     
   1757.3152440276197        5.8941698386701464       -200.75706173102992        6386.3235025658469     
   1828.6494808505095        5.7600277379592555       -200.89330000080707        6587.2168025666542     
   1904.2637718827727        5.6238720065601555       -200.66949378628439        6787.8862963529382     
   1984.4149203769718        5.4856492889010813       -200.27939730122498        6988.1656936541631     
   2069.3751377808230        5.3447245224345679       -199.91044952282931        7188.0761431769924     
   2159.4329682289049        5.2011653950653329       -199.44689334613358        7387.5230365231264     
   2254.8942685038719        5.0551365711632972       -198.85962750414666        7586.3826640272728     
   2350.3555687788389        4.9152654873837776       -198.09391280507850        7784.4765768323514     
   2445.8168690538059        4.7813482107929408       -197.18639400812944        7981.6629708404807     
   2547.0058473452709        4.6453920774926232       -196.18438958283267        8177.8473604233131     
   2654.2661643342240        4.5072430284777978       -195.12833289356269        8372.9756933168755     
   2767.9621003425141        4.3673345796606666       -193.91132771964081        8566.8870210365167     
   2888.4797925113016        4.2269371902933432       -192.34027449303255        8759.2272955295484     
   3016.2285462102163        4.0861550325249336       -190.59315293025489        8949.8204484598027     
   3151.6422251310660        3.9426929948358529       -189.16544900051903        9138.9858974603212     
   3295.1807247871666        3.7980921877420855       -187.49002644197350        9326.4759239022951     
   3447.3315344226330        3.6527517446416025       -185.66230941321655        9512.1382333155125     
   3599.4823440580994        3.5148748030547825       -183.79848533085553        9695.9367186463678     
   3751.6331536935659        3.3832320312789630       -182.04867672781475        9877.9853953741822     
   3903.7839633290323        3.2588968961187290       -180.06746575460215        10058.052861128785     
   4065.0638215426270        3.1337733290337351       -178.07168605725002        10236.124547186035     
   4236.0204712490377        3.0073724672081745       -176.10324594598984        10412.227793132024     
   4417.2345199378324        2.8808097151596206       -173.93558597274784        10586.163379104772     
   4609.3214115479550        2.7536084056526704       -171.76278665360721        10757.926165758379     
   4801.4083031580776        2.6350028040633173       -169.31454530563801        10927.240711064018     
   5001.4083031580776        2.5177003615503173       -167.07422292157105        11094.314933985588     
   5201.4083031580776        2.4048737189214258       -165.12684537031816        11259.441779355906     
   5381.4083031580776        2.3086020672274596       -163.18665003188664        11422.628429387792     
   5572.2083031580778        2.2119612357429759       -161.13714394034437        11583.765573328137     
   5772.2083031580778        2.1098469447935218       -159.97156087829023        11743.737134206427     
   5972.2083031580778        2.0125177709281377       -158.31705403754862        11902.054188243976     
   6172.2083031580778        1.9208755536108288       -156.43693091030454        12058.491119154280     
   6372.2083031580778        1.8354406790239279       -154.35154355760878        12212.842662711888     
   6572.2083031580778        1.7555036004063183       -152.25042213046203        12365.093084842350     
   6732.2083031580778        1.6923062214292215       -151.00410633200698        12516.097191174358     
   6901.8083031580782        1.6270576614133796       -149.69138187255800        12665.788573046917     
   7071.4083031580785        1.5669915888280217       -147.84688100950987        12813.635454056426     
   7241.0083031580789        1.5087357210381382       -146.37243974677517        12960.007893803202     
   7420.7843031580787        1.4487935718852807       -144.92680418145181        13104.934697984654     
   7611.3468631580790        1.3827611780671412       -144.16563366706893        13249.100331651724     
   7811.3468631580790        1.3121189067784664       -143.50936742430068        13392.609699076023     
   8011.3468631580790        1.2509060936493306       -141.39150606158802        13534.001205137611     
   8211.3468631580799        1.1977489957060947       -139.00242925503321        13673.003634392644     
   8411.3468631580799        1.1392379056826369       -138.33617762922887        13811.339812021874     
   8611.3468631580799        1.0815396224004974       -137.31987606365530        13948.659688085529     
   8811.3468631580799        1.0201569096207399       -137.03564681669522        14085.695334902224     
   9011.3468631580799       0.96911179632607358       -134.93192856584884        14220.627263468074     
   9211.3468631580799       0.92375333987634178       -132.92553067420485        14353.552794142279     
   9411.3468631580799       0.87811891960793065       -131.65229821527399        14485.205092357553     
   9611.3468631580799       0.82692403270908765       -131.39914568610592        14616.604238043659     
   9811.3468631580799       0.77832598549294052       -130.39659198051592        14747.000830024175     
   10011.346863158080       0.72818043361151807       -129.85795676498921        14876.858786789164     
   10211.346863158080       0.68439506183795284       -128.33844777017080        15005.197234559335     
   10411.346863158080       0.64389147291775817       -126.91432334153143        15132.111557900866     
   10611.346863158080       0.60915677510788457       -125.03398426137460        15257.145542162240     
   10811.346863158080       0.56488523522678191       -125.21275988547376        15382.358302047713     
   11011.346863158080       0.51975973249568286       -124.83134516901194        15507.189647216725     
   11211.346863158080       0.48347626024207391       -123.15051427661876        15630.340161493343     
   11411.346863158080       0.44893785408901965       -121.90726105635801        15752.247422549701     
   11611.346863158080       0.42158636129756799       -119.87471303049580        15872.122135580197     
   11811.346863158080       0.39262376186453041       -118.81885656894829        15990.940992149146     
   12011.346863158080       0.35282671884587147       -119.41850107773452        16110.359493226881     
   12211.346863158080       0.31282953997154039       -119.24788953172846        16229.607382758610     
   12411.346863158080       0.27698951926700516       -118.32442412117977        16347.931806879789     
   12611.346863158080       0.24785701893309853       -115.65935953749248        16463.591166417282     
   12811.346863158080       0.21536246056399933       -115.29436399835514        16578.885530415639     
   13011.346863158080       0.18391162435073477       -114.51791111052522        16693.403441526163     
   13211.346863158080       0.15994389701149325       -112.87829441972541        16806.281735945890     
   13411.346863158080       0.12626652300657246       -113.45853548302210        16919.740271428913     
   13611.346863158080        8.7524202005333507E-002  -104.57728993159834        17024.317561360513     
   13811.346863158080        6.1708244507672982E-002  -104.26603232354782        17128.583593684059     
   14011.346863158080        3.6086408712028506E-002  -104.49159970984026        17233.075193393899     
   14211.346863158080        1.0838606316410482E-002  -104.73987443611041        17337.815067830008     
   14411.346863158080       -6.7084850476089031E-003  -104.19425419396784        17442.009322023976     
   14611.346863158080       -3.5203464846676302E-002  -99.683083120763328        17541.692405144739     
   14811.346863158080       -6.0422037833840925E-002  -100.24249722040008        17641.934902365138     
   15011.346863158080       -8.8581877674470177E-002  -101.66854477781861        17743.603447142956     
   15211.346863158080      -0.10515468298608188       -106.63481673307169        17850.238263876028     
