 #              _____________________  _______________________             #
 #              ___  __ \__  __ \_  / / /_  /___  ____/_  ___/             #
 #              __  / / /_  /_/ /  / / /_  __/_  __/  _____ \              #
 #              _  /_/ /_  _, _// /_/ / / /_ _  /___  ____/ /              #
 #              /_____/ /_/ |_| \____/  \__/ /_____/  /____/               #
 #                                                                         #
  
 #        time                      T            heat flux [W.L-2]   in    x              directions   cumulative flux
 #-----------------------------------------------------------------------------------------------

   0.0000000000000000        5.5797999999999996       -5.0280511839554975        5.0280511839554975     
   1.0000000000000000        5.5792416474093143       -4.8822378053035136        9.9102889892590120     
   1.9540000000000002        5.5787377076912152       -4.7545036184561553        14.664792607715167     
   2.8641160000000001        5.5782810674428029       -4.6420983645827896        19.306890972297957     
   3.8288389600000006        5.5778219319998357       -4.5326050548399301        23.839496027137887     
   4.8514452976000007        5.5773608634138734       -4.4263581605085234        28.265854187646411     
   5.9354080154560007        5.5768983747978735       -4.3236649135187841        32.589519101165195     
   7.0844084963833609        5.5764349189676281       -4.2248004050294545        36.814319506194650     
   8.3023490061663630        5.5759708777336909       -4.1300032239535032        40.944322730148151     
   9.5933659465363448        5.5755065521680045       -4.0394718116247050        44.983794541772859     
   10.961843903328527        5.5750421541493775       -3.9533616953002340        48.937156237073090     
   12.412430537528239        5.5745777994529497       -3.8717837393153034        52.808939976388395     
   13.950052369779934        5.5741135025907234       -3.7948035182637176        56.603743494652115     
   15.579931511966731        5.5736491735347400       -3.7224418724850810        60.326185367137192     
   17.307603402684734        5.5731846163647818       -3.6546766540227194        63.980862021159915     
   19.138935606845820        5.5727195297837353       -3.5914456137816768        67.572307634941595     
   21.080147743256571        5.5722535093426169       -3.5326503213748310        71.104957956316426     
   23.137832607851966        5.5717860511216815       -3.4781609523098891        74.583118908626318     
   25.318978564323086        5.5713165565322944       -3.4278217272148432        78.010940635841166     
   27.630993278182473        5.5708443378447434       -3.3814567492746646        81.392397385115828     
   30.081728874873424        5.5703686240167336       -3.3388759628095777        84.731273347925409     
   32.679508607365833        5.5698885664008184       -3.2998809508581521        88.031154298783562     
   35.433155123807786        5.5694032439483196       -3.2642703040829240        91.295424602866490     
   38.352020431236255        5.5689116676005863       -3.2318443268533743        94.527268929719867     
   41.446017657110431        5.5684127836602864       -3.2024088965640378        97.729677826283904     
   44.725654716537058        5.5679054760569766       -3.1757783549493492        100.90545618123325     
   48.202069999529286        5.5673885675507275       -3.1517773796549169        104.05723356088816     
   51.887070199501046        5.5668608200426064       -3.1302418542615715        107.18747541514973     
   55.793170411471110        5.5663209342683260       -3.1110188187389545        110.29849423388869     
   59.933636636159378        5.5657675492307677       -3.0939656342871604        113.39245986817585     
   63.444751994695032        5.5653102989669971       -3.0815335408688509        116.47399340904470     
   67.166534274742830        5.5648375503583507       -3.0702859390865096        119.54427934813120     
   70.888316554790620        5.5643754101646792       -3.0606818586447475        122.60496120677594     
   74.610098834838411        5.5639227477715734       -3.0524835266998336        125.65744473347577     
   78.331881114886201        5.5634785958751145       -3.0454921908612906        128.70293692433705     
   82.053663394933992        5.5630421230682092       -3.0395404080115602        131.74247733234861     
   85.775445674981782        5.5626126117598487       -3.0344861041201252        134.77696343646875     
   89.497227955029572        5.5621894402422560       -3.0302079548747827        137.80717139134353     
   93.219010235077363        5.5617720680128553       -3.0266017589879235        140.83377315033147     
   96.940792515125153        5.5613600236727061       -3.0235775636859303        143.85735071401740     
   100.66257479517294        5.5609528948818339       -3.0210573650537595        146.87840807907116     
   104.38435707522073        5.5605503199701491       -3.0189732516214249        149.89738133069258     
   108.10613935526852        5.5601519808913444       -3.0172658928027052        152.91464722349528     
   111.82792163531632        5.5597575972741566       -3.0158832980980077        155.93053052159328     
   115.54970391536411        5.5593669213764390       -3.0147797907959775        158.94531031238927     
   119.27148619541190        5.5589797337866838       -3.0139151531388664        161.95922546552814     
   122.99326847545969        5.5585958397478912       -3.0132539096922408        164.97247937522039     
   126.71505075550748        5.5582150660024059       -3.0127647230582424        167.98524409827863     
   130.43683303555528        5.5578372580749056       -3.0124198816069017        170.99766397988552     
   134.15861531560307        5.5574622779255067       -3.0121948631249444        174.00985884301045     
   137.88039759565086        5.5570900019167198       -3.0120679615503545        177.02192680456079     
   140.26233825488146        5.5568528226936600       -3.0120216793581402        180.03394848391892     
   142.78719535366588        5.5566025899061833       -3.0120061226052206        183.04595460652413     
   145.31205245245030        5.5563535032429048       -3.0120187855352989        186.05797339205944     
   147.98840097716180        5.5560907248523970       -3.0120581671975541        189.07003155925699     
   150.82533041335597        5.5558135503637285       -3.0121228614419300        192.08215442069891     
   153.83247561572179        5.5555212438925050       -3.0122105446281622        195.09436496532709     
   157.02004953022956        5.5552130372218764       -3.0123178401439792        198.10668280547108     
   160.39887787960780        5.5548881290495293       -3.0124401838202339        201.11912298929133     
   163.98043592994873        5.5545456843098613       -3.0125716968964129        204.13169468618773     
   167.77688746331012        5.5541848335769632       -3.0127050758648730        207.14439976205261     
   171.80112608867319        5.5538046725476322       -3.0128315119964348        210.15723127404905     
   176.06681903155805        5.5534042615935739       -3.0129406580004012        213.17017193204944     
   180.33251197444292        5.5530063456541860       -3.0130183498277883        216.18319028187722     
   184.59820491732779        5.5526108647935306       -3.0130593867899464        219.19624966866715     
   188.86389786021266        5.5522177631385237       -3.0130598344235424        222.20930950309068     
   193.12959080309753        5.5518269882366020       -3.0130169284300399        225.22232643152071     
   197.39528374598240        5.5514384904833438       -3.0129289913508228        228.23525542287155     
   201.66097668886727        5.5510522226104673       -3.0127953601203998        231.24805078299195     
   205.92666963175213        5.5506681392261106       -3.0126163228866054        234.26066710587855     
   210.19236257463700        5.5502861964005072       -3.0123930637037786        237.27306016958232     
   214.71399709409496        5.5498836911632941       -3.0121091978065735        240.28516936738890     
   219.50692968472040        5.5494596211346012       -3.0117594739099465        243.29692884129884     
   224.58743823078336        5.5490129416746523       -3.0113404478440371        246.30826928914288     
   229.66794677684632        5.5485690266889858       -3.0108810822645440        249.31915037140743     
   235.05328583567305        5.5481014985028203       -3.0103600525251286        252.32951042393256     
   240.76174523802939        5.5476092113467939       -3.0097848675909211        255.33929529152348     
   246.47020464038573        5.5471201117655404       -3.0092041635770292        258.34849945510052     
   252.17866404274207        5.5466340911870606       -3.0086371645424834        261.35713661964303     
   257.88712344509844        5.5461510369561893       -3.0081048470493066        264.36524146669234     
   263.59558284745481        5.5456708317510319       -3.0076298446896867        267.37287131138203     
   269.30404224981118        5.5451933530684059       -3.0072363530918946        270.38010766447394     
   275.01250165216754        5.5447184727741528       -3.0069500344647286        273.38705769893869     
   280.72096105452391        5.5442460567148402       -3.0067979210178182        276.39385561995653     
   286.42942045688028        5.5437759643879660       -3.0068083168647970        279.40066393682133     
   292.13787985923665        5.5433080486680719       -3.0070106982032638        282.40767463502459     
   297.84633926159302        5.5428421555864524       -3.0074356117605627        285.41511024678516     
   303.55479866394938        5.5423781241623038       -3.0081145716282496        288.42322481841342     
   309.60576563044714        5.5418881418715138       -3.0091583306480314        291.43238314906142     
   315.65673259694489        5.5413998407616489       -3.0105657061807625        294.44294885524221     
   321.70769956344265        5.5409130018703792       -3.0123770508683712        297.45532590611060     
   327.75866652994040        5.5404273971450788       -3.0146333726408745        300.46995927875150     
   332.88988651753050        5.5400163481007967       -3.0168920013262279        303.48685128007776     
   338.02110650512054        5.5396058944805908       -3.0195213959093223        306.50637267598711     
   343.46019969196601        5.5391713002734777       -3.0227557043987927        309.52912838038588     
   349.22563847002220        5.5387109529236742       -3.0267230149101634        312.55585139529603     
   355.33700357476181        5.5382230713882317       -3.0315774475939388        315.58742884288995     
   361.81505058578574        5.5377056755084748       -3.0375041445689730        318.62493298745892     
   368.68178041747115        5.5371565485265286       -3.0447251053944382        321.66965809285335     
   375.96051403905767        5.5365731912692224       -3.0535059714838897        324.72316406433725     
   383.67597167793940        5.5359527662566537       -3.0641638613996176        327.78732792573686     
   391.85435677515403        5.5352920297012522       -3.0770763515429773        330.86440427727985     
   400.52344497820150        5.5345872490510706       -3.0926916812589940        333.95709595853884     
   409.71267847343182        5.5338341034080543       -3.1115402356220332        337.06863619416089     
   418.90191196866215        5.5330737254037272       -3.1328093034432221        340.20144549760408     
   428.09114546389247        5.5323049452031539       -3.1566168678845594        343.35806236548865     
   437.83173296883660        5.5314791900190308       -3.1848372015621744        346.54289956705082     
   448.15675572407741        5.5305900136570934       -3.2182498866191280        349.76114945366993     
   459.10127984463264        5.5296298829597106       -3.2577578280233270        353.01890728169326     
   470.70247541242122        5.5285899750813963       -3.3044020514436561        356.32330933313693     
   482.99974271427709        5.5274599420758346       -3.3593768805291142        359.68268621366605     
   496.03484605424433        5.5262276397482673       -3.4240450681320471        363.10673128179809     
   509.06994939421156        5.5249576293988802       -3.4952558180137947        366.60198709981188     
   522.10505273417880        5.5236467546628569       -3.5731260094819413        370.17511310929382     
   535.92226227454410        5.5222076779320695       -3.6632525810927175        373.83836569038652     
   549.73947181490939        5.5207155583410659       -3.7610290040502803        377.59939469443680     
   564.38571392769654        5.5190703474848934       -3.8733029517968038        381.47269764623360     
   579.91073056725099        5.5172505461127219       -4.0020035329016084        385.47470117913520     
   595.43574720680544        5.5153506885489989       -4.1403411950414020        389.61504237417660     
   610.96076384635990        5.5133668845035508       -4.2882217555384479        393.90326412971507     
   627.41728148428763        5.5111654665632210       -4.4555396370229339        398.35880376673799     
   643.87379912221536        5.5088615709965723       -4.6332242460568827        402.99202801279489     
   660.33031676014309        5.5064516741719016       -4.8210438019040271        407.81307181469890     
   677.77422545634647        5.5037743395950045       -5.0312084080550985        412.84428022275398     
   696.26476867432200        5.5007944395292920       -5.2660200870328904        418.11030030978685     
   715.86474448537604        5.4974723096671845       -5.5279245054154726        423.63822481520231     
   736.64071884509337        5.4937632950580442       -5.8195013490085890        429.45772616421090     
   757.41669320481071        5.4898635611164774       -6.1243604127085982        435.58208657691949     
   778.19266756452805        5.4857706543502474       -6.4418115598775847        442.02389813679707     
   798.96864192424539        5.4814827814701390       -6.7711571924567968        448.79505532925384     
   820.99117474554578        5.4767172060723528       -7.1327954977626407        455.92785082701647     
   843.01370756684616        5.4717305439687411       -7.5061363513828470        463.43398717839932     
   865.03624038814655        5.4665227906862537       -7.8903586421626875        471.32434582056203     
   888.38012517872494        5.4607548994837680       -8.3088980764041001        479.63324389696612     
   911.72400996930332        5.4547407656203593       -8.7377568886059578        488.37100078557205     
   935.06789475988171        5.4484824409270542       -9.1760123595292189        497.54701314510129     
   958.41177955046010        5.4419825408975289       -9.6227655592172443        507.16977870431856     
   981.75566434103848        5.4352441904957960       -10.077143175014651        517.24692187933317     
   1006.5001822190516        5.4278379117260034       -10.566345315248991        527.81326719458218     
   1032.7293711697455        5.4196967982883715       -11.092245832113042        538.90551302669519     
   1058.9585601204394        5.4112715361230439       -11.624391798574452        550.52990482526968     
   1086.7615004081749        5.4020295894920025       -12.194242761135399        562.72414758640502     
   1114.5644406959104        5.3924850561839630       -12.768701051636894        575.49284863804189     
   1142.3673809836459        5.3826468905456943       -13.346676417602181        588.83952505564412     
   1170.1703212713815        5.3725243171297361       -13.927159840844235        602.76668489648830     
   1197.9732615591170        5.3621267359412794       -14.509224555327744        617.27590945181601     
   1225.7762018468525        5.3514636395514898       -15.092024371840862        632.36793382365681     
   1255.2473185518522        5.3398737503106926       -15.709708207843937        648.07764203150077     
   1275.2405241245240        5.3318826126062202       -16.128438022396605        664.20608005389738     
   1296.4333220315561        5.3232717443437201       -16.571657408312838        680.77773746221021     
   1317.6261199385883        5.3145247675696750       -17.013970298029871        697.79170776024012     
   1340.0904857200424        5.3051049391374203       -17.481504098845697        715.27321185908579     
   1363.9027134483836        5.2949593573146894       -17.975278720823692        733.24849057990946     
   1389.1436748404253        5.2840314066150631       -18.496280477103856        751.74477105701328     
   1415.8990939159896        5.2722606341878135       -19.045444252742993        770.79021530975626     
   1444.2598381360876        5.2595826587650070       -19.623631900860374        790.41384721061661     
   1472.6205823561857        5.2467129061221458       -20.197475849753854        810.61132306037041     
   1500.9813265762837        5.2336604183169149       -20.766584096849492        831.37790715721985     
   1529.3420707963817        5.2204341067684412       -21.330586834651736        852.70849399187159     
   1557.7028150164797        5.2070427557153494       -21.889135133616573        874.59762912548820     
   1580.3914103925581        5.1962284970890735       -22.332310076231675        896.92993920171989     
   1604.4413214912013        5.1846569279530375       -22.797770467814704        919.72770966953465     
   1628.4912325898445        5.1729820638380417       -23.258744555331258        942.98645422486595     
   1653.9841383544062        5.1604966944890682       -23.742137923223268        966.72859214808921     
   1681.0066184648417        5.1471456667896884       -24.248432275147724        990.97702442323691     
   1709.6504473819034        5.1328708805269834       -24.778019163772360        1015.7550435870093     
   1740.0129060339887        5.1176113067815896       -25.331186262238294        1041.0862298492475     
   1772.1971122051991        5.1013030369979901       -25.908103568253015        1066.9943334175005     
   1806.3123707466821        5.0838793664474533       -26.508809515060630        1093.5031429325611     
   1842.4745448006540        5.0652709140601431       -27.133197808955153        1120.6363407415163     
   1880.8064492978644        5.0454057743595788       -27.781007495704849        1148.4173482372212     
   1921.4382680649073        5.0242096763969073       -28.451821951468094        1176.8691701886892     
   1962.0700868319502        5.0028918885041627       -29.106775782534609        1205.9759459712238     
   2002.7019055989931        4.9814686122841483       -29.745967213208321        1235.7219131844322     
   2043.3337243660360        4.9599548686427504       -30.369581447242531        1266.0914946316748     
   2083.9655431330789        4.9383644940720854       -30.977879510567764        1297.0693741422426     
   2124.5973619001220        4.9167101872462595       -31.571177979707794        1328.6405521219503     
   2167.6670897931876        4.8936985268122584       -32.183647926734317        1360.8242000486846     
   2210.7368176862533        4.8706413402706730       -32.780123124876461        1393.6043231735609     
   2253.8065455793189        4.8475501508695480       -33.361028903415743        1426.9653520769766     
   2296.8762734723846        4.8244356210118537       -33.926761360990973        1460.8921134379675     
   2339.9460013654502        4.8013077275936169       -34.477672782997551        1495.3697862209651     
   2383.0157292585159        4.7781759230993464       -35.014063573581922        1530.3838497945471     
