 #              _____________________  _______________________             #
 #              ___  __ \__  __ \_  / / /_  /___  ____/_  ___/             #
 #              __  / / /_  /_/ /  / / /_  __/_  __/  _____ \              #
 #              _  /_/ /_  _, _// /_/ / / /_ _  /___  ____/ /              #
 #              /_____/ /_/ |_| \____/  \__/ /_____/  /____/               #
 #                                                                         #
  
 #        time                      T            heat flux [W.L-2]   in    x              directions   cumulative flux
 #-----------------------------------------------------------------------------------------------

   0.0000000000000000          278.10449999999997           11.877832341139172          0.0000000000000000     
   1.0000000000000000          278.10412067134968           12.113535650874786          0.0000000000000000     
   2.0060000000000002          278.10376100156350           12.328539394829827          12.328539394829827     
   3.0180360000000004          278.10341944874870           12.524686277364554          24.928373789858568     
   4.0361442160000003          278.10309459631776           12.703658194555061          37.784933214443292     
   5.0603610812960005          278.10278514284357           12.866989532186420          50.884920972348283     
   6.0907232477837763          278.10248989268149           13.016079450857838          64.216209065949585     
   7.1272675872704792          278.10220774730965           13.152203226057797          77.767741676038014     
   8.1700311927941023          278.10193769733633           13.276522709408836          91.529446138542397     
   9.2190513799508675          278.10167881512791           13.390095972456827          105.49215089308882     
   10.274365688230573          278.10143024801494           13.493886189821472          119.64750990940742     
   11.336011882359955          278.10119121203388           13.588769817076214          133.98793312928734     
   12.404027953654115          278.10096098616799           13.675544112880038          148.50652248937493     
   13.478452121376039          278.10073890704888           13.754934053605423          163.19701311821683     
   14.559322834104295          278.10052436408751           13.827598684945398          178.05371932688206     
   15.646678771108920          278.10031679500128           13.894136951520561          193.07148503641608     
   16.740558843735574          278.10011568170830           13.955093044164457          208.24563830944027     
   17.841002196797987          278.09992054656095           14.010961301219625          223.57194967518762     
   18.948048209978776          278.09973094889324           14.062190697096057          239.04659395730309     
   20.061736499238648          278.09954648185754           14.109188950335660          254.66611533398660     
   21.182106918234080          278.09936676952884           14.152326280834577          270.42739537873678     
   22.309199559743483          278.09919146425489           14.191938843033018          286.32762384666324     
   23.443054757101944          278.09902024423297           14.228331861349107          302.36427198854363     
   24.583713085644554          278.09885281129584           14.261782491398824          318.53506819001211     
   25.731215364158420          278.09868888888894           14.292542428676263          334.83797574733035     
   26.885602656343369          278.09852822022452           14.320840285689041          351.27117260539171     
   28.046916272281429          278.09837056659728           14.346883756622125          367.83303289649098     
   29.215197769915118          278.09821570584830           14.370861586459887          384.52211012960805     
   30.390488956534607          278.09806343096568           14.392945361483919          401.33712189188236     
   31.572831890273815          278.09791354880917           14.413291136141874          418.27693593437073     
   32.762268881615455          278.09776587894879           14.432040909963362          435.34055752370108     
   33.958842494905149          278.09762025260835           14.449323967442908          452.52711795045707     
   35.162595549874581          278.09747651170341           14.465258092979944          469.83586409394206     
   36.373571123173825          278.09733450796688           14.479950671626041          487.26614895071856     
   37.591812549912866          278.09719410215337           14.493499685479481          504.81742304145456     
   38.817363425212342          278.09705516331576           14.505994615582814          522.48922661821109     
   40.050267605763615          278.09691756814800           14.517517257291994          540.28118260006056     
   41.290569211398200          278.09678120038791           14.528142456670995          558.19299017053470     
   42.538312626666588          278.09664595027334           14.537938776771806          576.22441897798205     
   43.793542502426590          278.09651171404886           14.546969097517053          594.37530388152175     
   45.056303757441150          278.09637839351728           14.555291157743167          612.64554019310629     
   46.326641579985797          278.09624589563106           14.562958044226669          631.03507936975836     
   47.604601429465710          278.09611413212139           14.570018631306114          649.54392511228673     
   48.890229038042506          278.09598301916066           14.576517978034156          668.17212983343654     
   50.183570412270761          278.09585247705468           14.582497685275301          686.91979145963364     
   51.484671834744383          278.09572242996342           14.587996216751893          705.78705053384408     
   52.793579865752847          278.09559280564474           14.593049188958277          724.77408759182526     
   54.110341344947365          278.09546353522234           14.597689631040044          743.88112078406255     
   55.435003393017048          278.09533455297287           14.601948219041926          763.10840372008988     
   56.767613413375152          278.09520579613172           14.605853486345831          782.45622351311852     
   58.108219093855404          278.09507720471481           14.609432013097742          801.92489900551300     
   59.456868408418536          278.09494872135622           14.612708596346899          821.51477915697819     
   60.813609618869044          278.09482029115804           14.615706403454132          841.22624157985263     
   62.178491276582257          278.09469186155331           14.618447109534626          861.05969120614941     
   63.551562224241749          278.09456338217910           14.620951021862485          881.01555907421277     
   64.932871597587194          278.09443480476051           14.623237191121744          901.09430122207584     
   66.322468827172713          278.09430608300198           14.625323512276179          921.29639767779258     
   67.720403640135743          278.09417717248851           14.627226814804928          941.62235153616462     
   69.126726061976555          278.09404803059226           14.628962944980934          962.07268811449978     
   70.541486418348413          278.09391861638721           14.630546839055462          982.64795417805578     
   71.964735336858510          278.09378889056859           14.631992590411386          1003.3487172296966     
   73.396523748879659          278.09365881537866           14.633313509655357          1024.1755648565327     
   74.836902891372944          278.09352835453655           14.634522179352222          1045.1291041283957     
   76.285924308721178          278.09339747317301           14.635630503351498          1066.2099610426617     
   77.743639854573502          278.09326613776892           14.636649752119984          1087.4187800117083     
   79.210101693700949          278.09313431609746           14.637590603475799          1108.7562233882170     
   80.685362303863158          278.09300197716954           14.638463180047085          1130.2229710252282     
   82.169474477686336          278.09286909118259           14.639277083175237          1151.8197198672869     
   83.662491324552448          278.09273562947169           14.640041424214809          1173.5471835702397     
   85.164466272499766          278.09260156446362           14.640764852837549          1195.4060921465314     
   86.675453070134765          278.09246686963274           14.641455583597201          1217.3971916345777     
   88.195505788555579          278.09233151945978           14.642121419915977          1239.5212437894393     
   89.724678823286908          278.09219548939205           14.642769776301302          1261.7790257931160     
   91.263026896226634          278.09205875580557           14.643407698704586          1284.1713299825524     
   92.810605057603993          278.09192129596920           14.644041883810754          1306.6989635945613     
   94.367468687949611          278.09178308801035           14.644678696432880          1329.3627485255490     
   95.933673500077305          278.09164411088142           14.645324186465475          1352.1635211060782     
   97.509275541077770          278.09150434432917           14.645984103283450          1375.1021318869864     
   99.094331194324241          278.09136376886391           14.646663910652657          1398.1794454384585     
   100.68889718149019          278.09122236573086           14.647368799999628          1421.3963401600838     
   102.29303056457913          278.09108011688232           14.648103702488676          1444.7537081005519     
   103.90678874796660          278.09093700495083           14.648873301137433          1468.2524547875466     
   105.53022948045439          278.09079301322407           14.649682041515765          1491.8934990660673     
   107.16341085733713          278.09064812562042           14.650534142029118          1515.6777729449407     
   108.80639132248115          278.09050232666459           14.651433603957015          1539.6062214515571     
   110.45922967041604          278.09035560146543           14.652384220687502          1563.6798024939312     
   112.12198504843853          278.09020793569471           14.653389585785110          1587.8994867285467     
   113.79471695872917          278.09005931556544           14.654453101525803          1612.2662574350873     
   115.47748526048154          278.08990972781214           14.655577986784321          1636.7811103973343     
   117.17035017204444          278.08975915967142           14.656767283990401          1661.4450537889945     
   118.87337227307670          278.08960759886384           14.658023866247419          1686.2591080650161     
   120.58661250671516          278.08945503357540           14.659350443805232          1711.2243058575937     
   122.31013218175545          278.08930145244079           14.660749570485423          1736.3416918770470     
   124.04399297484598          278.08914684452714           14.662223649214329          1761.6123228163090     
   125.78825693269505          278.08899119931789           14.663774937854589          1787.0372672597587     
   127.54298647429123          278.08883450669754           14.665405554342893          1812.6176055954386     
   129.30824439313696          278.08867675693750           14.667117481925320          1838.3544299310345     
   131.08409385949579          278.08851794068147           14.668912573859345          1864.2488440128957     
   132.87059842265276          278.08835804893243           14.670792557756183          1890.3019631476479     
   134.66782201318867          278.08819707303974           14.672759040115269          1916.5149141269167     
   136.47582894526781          278.08803500468633           14.674813510216785          1942.8888351541934     
   138.29468391893943          278.08787183587719           14.676957344268697          1969.4248757744610     
   140.12445202245306          278.08770755892806           14.679191808633547          1996.1241968050738     
   141.96519873458777          278.08754216645394           14.681518063707593          2022.9879702692051     
   143.81698992699529          278.08737565135863           14.683937167405281          2050.0173793312993     
   145.67989186655726          278.08720800682505           14.686450077754952          2077.2136182330187     
   147.55397121775661          278.08703922630542           14.689057656263374          2104.5778922312093     
   149.43929504506315          278.08686930351166           14.691760670810014          2132.1114175371367     
   151.33593081533354          278.08669823240689           14.694559798088367          2159.8154212562536     
   153.24394640022555          278.08652600719648           14.697455626476705          2187.6911413293910     
   155.16341007862690          278.08635262232019           14.700448658153327          2215.7398264740523     
   157.09439053909867          278.08617807244372           14.703539311939625          2243.9627361272669     
   159.03695688233327          278.08600235245171           14.706727925055887          2272.3611403880241     
   160.99117862362726          278.08582545744036           14.710014755219103          2300.9363199599970     
   162.95712569536903          278.08564738271025           14.713399983129905          2329.6895660953842     
   164.93486844954126          278.08546812375982           14.716883713737099          2358.6221805375699     
   166.92447766023849          278.08528767627894           14.720465978724615          2387.7354754650310     
   168.92602452619994          278.08510603614252           14.724146737799799          2417.0307734342155     
   170.93958067335714          278.08492319940490           14.727925880415055          2446.5094073222726     
   172.96521815739729          278.08473916229389           14.731803227633877          2476.1727202699849     
   175.00300946634167          278.08455392120550           14.735778533336827          2506.0220656236261     
   177.05302752313972          278.08436747269832           14.739851485940543          2536.0588068768066     
   179.11534568827855          278.08417981348919           14.744021709304748          2566.2843176107035     
   181.19003776240822          278.08399094044739           14.748288764864105          2596.6999814351957     
   183.27717798898269          278.08380085059042           14.752652152370306          2627.3071919281106     
   185.37684105691659          278.08360954107951           14.757111311268581          2658.1073525738962     
   187.48910210325809          278.08341700921557           14.761665621618596          2689.1018767007981     
   189.61403671587763          278.08322325243410           14.766314405796898          2720.2921874181943     
   191.75172093617289          278.08302826830197           14.771056929222965          2751.6797175520742     
   193.90223126178992          278.08283205451312           14.775892401515463          2783.2659095795743     
   196.06564464936065          278.08263460888514           14.780819977534028          2815.0522155623480     
   198.24203851725682          278.08243592935514           14.785838758439530          2847.0400970788182     
   200.43149074836035          278.08223601397657           14.790947792640475          2879.2310251550934     
   202.63407969285052          278.08203486091588           14.796146076866071          2911.6264801948219     
   204.84988417100763          278.08183246844891           14.801432556869750          2944.2279519071999     
   207.07898347603367          278.08162883495828           14.806806128336746          2977.0369392335724     
   209.32145737688987          278.08142395892935           14.812265638387890          3010.0549502739641     
   211.57738612115119          278.08121783894848           14.817809885426875          3043.2835022098830     
   213.84685043787809          278.08101047369917           14.823437620859112          3076.7241212275439     
   216.12993154050537          278.08080186195946           14.829147549709139          3110.3783424390872     
   218.42671112974841          278.08059200259970           14.834938331312753          3144.2477098019481     
   220.73727139652689          278.08038089457938           14.840808580167053          3178.3337760367385     
   223.06169502490604          278.08016853694454           14.846756866935387          3212.6381025440000     
   225.40006519505548          278.07995492882577           14.852781718851240          3247.1622593184561     
   227.75246558622581          278.07974006943545           14.858881621104095          3281.9078248630276     
   230.11898037974316          278.07952395806535           14.865055017126258          3316.8763861000839     
   232.49969426202162          278.07930659408441           14.871300309666120          3352.0695382817480     
   234.89469242759375          278.07908797693676           14.877615861366767          3387.4888848981100     
   237.30406058215931          278.07886810613905           14.883999995908077          3423.1360375846853     
   239.72788494565228          278.07864698127872           14.890450998341199          3459.0126160272075     
   242.16625225532619          278.07842460201186           14.896967116051588          3495.1202478652467     
   244.61924976885814          278.07820096806097           14.903546559687340          3531.4605685945912     
   247.08696526747130          278.07797607921339           14.910187503748499          3568.0352214675813     
   249.56948705907612          278.07774993531899           14.916888087531788          3604.8458573922612     
   252.06690398143058          278.07752253628854           14.923646415667989          3641.8941348293624     
   254.57930540531916          278.07729388209214           14.930460559018806          3679.1817196880020     
   257.10678123775108          278.07706397275655           14.937328555701107          3716.7102852204371     
   259.64942192517759          278.07683280836460           14.944248411342029          3754.4815119139630     
   262.20731845672867          278.07660038905232           14.951218100662066          3792.4970873832940     
   264.78056236746903          278.07636671500842           14.958235567338690          3830.7587062591133     
   267.36924574167386          278.07613178647193           14.965298725321537          3869.2680700764577     
   269.97346121612389          278.07589560373066           14.972405459862649          3908.0268871622575     
   272.59330198342064          278.07565816711985           14.979553627856619          3947.0368725202761     
   275.22886179532117          278.07541947702066           14.986741058726400          3986.2997477148474     
   277.88023496609310          278.07517953385866           14.993965555431982          4025.8172407537645     
   280.54751637588964          278.07493833810236           15.001224895147207          4065.5910859694736     
   283.23080147414498          278.07469589026186           15.008516829972324          4105.6230238986773     
   285.93018628298984          278.07445219088731           15.015839088125364          4145.9148011616444     
   288.64576740068776          278.07420724056766           15.023189374359822          4186.4681703391907     
   291.37764200509190          278.07396103992920           15.030565371165357          4227.2848898494522     
   294.12590785712246          278.07371358963468           15.037964739260476          4268.3667238225626     
   296.89066330426522          278.07346489038173           15.045385118566662          4309.7154419745675     
