 #              _____________________  _______________________             #
 #              ___  __ \__  __ \_  / / /_  /___  ____/_  ___/             #
 #              __  / / /_  /_/ /  / / /_  __/_  __/  _____ \              #
 #              _  /_/ /_  _, _// /_/ / / /_ _  /___  ____/ /              #
 #              /_____/ /_/ |_| \____/  \__/ /_____/  /____/               #
 #                                                                         #
  
 #        time                      T            heat flux [W.L-2]   in    x              directions   cumulative flux
 #-----------------------------------------------------------------------------------------------

   0.0000000000000000          278.22930000000002          -10.200017252469030          0.0000000000000000     
   1.0000000000000000          278.22930066504244          -10.200396222477679          0.0000000000000000     
   2.0060000000000002          278.22930129885816          -10.200742737006403          10.200742737006403     
   3.0180360000000004          278.22930190367822          -10.201060796100217          20.463009897883222     
   4.0361442160000003          278.22930248132502          -10.201354656382865          30.787148058910311     
   5.0603610812960005          278.22930303314956          -10.201628870171227          41.173510228214433     
   6.0907232477837763          278.22930355996544          -10.201888293935713          51.622456276729224     
   7.1272675872704792          278.22930406198134          -10.202138073545425          62.134353364994915     
   8.1700311927941023          278.22930453873471          -10.202383610858393          72.709576346102082     
   9.2190513799508675          278.22930498902917          -10.202630517435127          83.348508130288081     
   10.274365688230573          278.22930541087601          -10.202884558148003          94.051539999015361     
   11.336011882359955          278.22930580144208          -10.203151588926044          104.81907186035582     
   12.404027953654115          278.22930615700415          -10.203437491424111          115.65151244016329     
   13.478452121376039          278.22930647290991          -10.203748105921866          126.54927940472518     
   14.559322834104295          278.22930674354882          -10.204089166926197          137.51279941526016     
   15.646678771108920          278.22930696232811          -10.204466239005512          148.54250811202547     
   16.740558843735574          278.22930712165868          -10.204884658041488          159.63885003139430     
   17.841002196797987          278.22930721294796          -10.205349476667791          170.80227845811203     
   18.948048209978776          278.22930722660044          -10.205865414700652          182.03325521596892     
   20.061736499238648          278.22930715202529          -10.206436815435454          193.33225040127834     
   21.182106918234080          278.22930697765082          -10.207067607901251          204.69974206388176     
   22.309199559743483          278.22930669094546          -10.207761275498127          216.13621584111692     
   23.443054757101944          278.22930627844465          -10.208520830709224          227.64216455010475     
   24.583713085644554          278.22930572578173          -10.209348794915941          239.21808774286552     
   25.731215364158420          278.22930501772612          -10.210247185489246          250.86449123147258     
   26.885602656343369          278.22930413822269          -10.211217506770515          262.58188658689244     
   28.046916272281429          278.22930307043765          -10.212260747845164          274.37079061868405     
   29.215197769915118          278.22930179680492          -10.213377383532981          286.23172483889476     
   30.390488956534607          278.22930029907695          -10.214567381023242          298.16521491647683     
   31.572831890273815          278.22929855837691          -10.215830209767750          310.17179012601798     
   32.762268881615455          278.22929655525223          -10.217164855416412          322.25198279566814     
   33.958842494905149          278.22929426972951          -10.218569836486644          334.40632775779329     
   35.162595549874581          278.22929168137068          -10.220043224565311          346.63536180698827     
   36.373571123173825          278.22928876932781          -10.221582665777232          358.93962316754016     
   37.591812549912866          278.22928551239966          -10.223185405240828          371.31965097459619     
   38.817363425212342          278.22928188908645          -10.224848312417484          383.77598477090595     
   40.050267605763615          278.22927787764490          -10.226567908322124          396.30916402225967     
   41.290569211398200          278.22927345614124          -10.228340393067784          408.91972765297442     
   42.538312626666588          278.22926860250396          -10.230161674498907          421.60821360375678     
   43.793542502426590          278.22926329457385          -10.232027396806101          434.37515841296738     
   45.056303757441150          278.22925751015362          -10.233932969411956          447.22109682269854     
   46.326641579985797          278.22925122705516          -10.235873596250016          460.14656141126960     
   47.604601429465710          278.22924442314422          -10.237844303222413          473.15208225097626     
   48.890229038042506          278.22923707638392          -10.239839966723750          486.23818659354896     
   50.183570412270761          278.22922916487596          -10.241855340902575          499.40539858286303     
   51.484671834744383          278.22922066689875          -10.243885083287001          512.65423899391772     
   52.793579865752847          278.22921156094412          -10.245923780647274          525.98522499947421     
   54.110341344947365          278.22920182575172          -10.247965973298468          539.39886996342602     
   55.435003393017048          278.22919144034034          -10.250006178146416          552.89568326031508     
   56.767613413375152          278.22918038403765          -10.252038910645982          566.47617012058151     
   58.108219093855404          278.22916863650687          -10.254058705320890          580.14083150063232     
   59.456868408418536          278.22915617777255          -10.256060135574806          593.89016397773094     
   60.813609618869044          278.22914298824247          -10.258037831406183          607.72465966781954     
   62.178491276582257          278.22912904872823          -10.259986496487127          621.64480616626940     
   63.551562224241749          278.22911434046375          -10.261900923287207          635.65108650973445     
   64.932871597587194          278.22909884512137          -10.263776007440519          649.74397915883560     
   66.322468827172713          278.22908254482661          -10.265606760746978          663.92395800053384     
   67.720403640135743          278.22906542216987          -10.267388322383301          678.19149236839644     
   69.126726061976555          278.22904746021726          -10.269115969487567          692.54704708049780     
   70.541486418348413          278.22902864251984          -10.270785126526620          706.99108249384130     
   71.964735336858510          278.22900895312006          -10.272391372844689          721.52405457327825     
   73.396523748879659          278.22898837655777          -10.273930450050079          736.14641497515993     
   74.836902891372944          278.22896689787405          -10.275398267639943          750.85861114366901     
   76.285924308721178          278.22894450261418          -10.276790907766944          765.66108641898109     
   77.743639854573502          278.22892117682915          -10.278104629581950          780.55428015699135     
   79.210101693700949          278.22889690707524          -10.279335871872219          795.53862785845695     
   80.685362303863158          278.22887168041336          -10.280481255140748          810.61456130698582     
   82.169474477686336          278.22884548440732          -10.281537583622441          825.78250871600630     
   83.662491324552448          278.22881830711987          -10.282501845179254          841.04289488179609     
   85.164466272499766          278.22879013710997          -10.283371211923125          856.39614134377541     
   86.675453070134765          278.22876096342736          -10.284143039233157          871.84266654981036     
   88.195505788555579          278.22873077560695          -10.284814864582254          887.38288602631428     
   89.724678823286908          278.22869956366321          -10.285384405961763          903.01721255259940     
   91.263026896226634          278.22866731808261          -10.285849559551176          918.74605633836825     
   92.810605057603993          278.22863402981716          -10.286208397057903          934.56982520383860     
   94.367468687949611          278.22859969027570          -10.286459162845114          950.48892476215769     
   95.933673500077305          278.22856429131645          -10.286600270643921          966.50375860342672     
   97.509275541077770          278.22852782523773          -10.286630299505955          982.61472847909158     
   99.094331194324241          278.22849028476941          -10.286547990348497          998.82223448753393     
   100.68889718149019          278.22845166306359          -10.286352241695008          1015.1266752595170     
   102.29303056457913          278.22841195368454          -10.286042105040654          1031.5284481427716     
   103.90678874796660          278.22837115060003          -10.285616780814266          1048.0279493865355     
   105.53022948045439          278.22832924817084          -10.285075613627839          1064.6255743247864     
   107.16341085733713          278.22828624114067          -10.284418087333613          1081.3217175576981     
   108.80639132248115          278.22824212462672          -10.283643820687383          1098.1167731321398     
   110.45922967041604          278.22819689410915          -10.282752562178230          1115.0111347197083     
   112.12198504843853          278.22815054542104          -10.281744185331036          1132.0051957928799     
   113.79471695872917          278.22810307473799          -10.280618683625885          1149.0993497984775     
   115.47748526048154          278.22805447856871          -10.279376166102692          1166.2939903293984     
   117.17035017204444          278.22800475374436          -10.278016852374265          1183.5895112934506     
   118.87337227307670          278.22795389740867          -10.276541067693152          1200.9863070791835     
   120.58661250671516          278.22790190700789          -10.274949238342996          1218.4847727190663     
   122.31013218175545          278.22784878028125          -10.273241887214416          1236.0853040501420     
   124.04399297484598          278.22779451525105          -10.271419629364418          1253.7882978719467     
   125.78825693269505          278.22773911021284          -10.269483167292600          1271.5941521010186     
   127.54298647429123          278.22768256372603          -10.267433286791530          1289.5032659227888     
   129.30824439313696          278.22762487460432          -10.265270852797610          1307.5160399406789     
   131.08409385949579          278.22756604190693          -10.262996805688619          1325.6328763230092     
   132.87059842265276          278.22750606492883          -10.260612156829865          1343.8541789462304     
   134.66782201318867          278.22744494319170          -10.258117985080768          1362.1803535359797     
   136.47582894526781          278.22738267643592          -10.255515433531535          1380.6118078062277     
   138.29468391893943          278.22731926461080          -10.252805705543890          1399.1489515951116     
   140.12445202245306          278.22725470786662          -10.249990062126619          1417.7921969996951     
   141.96519873458777          278.22718900654570          -10.247069818095756          1436.5419585073239     
   143.81698992699529          278.22712216117452          -10.244046340065228          1455.3986531267547     
   145.67989186655726          278.22705417245533          -10.240921043225168          1474.3627005167400     
   147.55397121775661          278.22698504125793          -10.237695388846342          1493.4345231132666     
   149.43929504506315          278.22691476861155          -10.234370881961780          1512.6145462556669     
   151.33593081533354          278.22684335569750          -10.230949069610151          1531.9031983125626     
   153.24394640022555          278.22677080384096          -10.227431538492262          1551.3009108064584     
   155.16341007862690          278.22669711450351          -10.223819913636312          1570.8081185388057     
   157.09439053909867          278.22662228927510          -10.220115856517037          1590.4252597144439     
   159.03695688233327          278.22654632986718          -10.216321064146666          1610.1527760672172     
   160.99117862362726          278.22646923810476          -10.212437267864050          1629.9911129861646     
   162.95712569536903          278.22639101591909          -10.208466232491986          1649.9407196429661     
   164.93486844954126          278.22631166534012          -10.204409755690117          1670.0020491210182     
   166.92447766023849          278.22623118848935          -10.200269667946133          1690.1755585474014     
   168.92602452619994          278.22614958757237          -10.196047831920534          1710.4617092265003     
   170.93958067335714          278.22606686487126          -10.191746142880298          1730.8609667774567     
   172.96521815739729          278.22598302273764          -10.187366529128829          1751.3738012755275     
   175.00300946634167          278.22589806358479          -10.182910952438117          1772.0006873974291     
   177.05302752313972          278.22581198988030          -10.178381408996669          1792.7421045718036     
   179.11534568827855          278.22572480413834          -10.173779930465695          1813.5985371351478     
   181.19003776240822          278.22563650891237          -10.169108585534177          1834.5704744943644     
   183.27717798898269          278.22554710678696          -10.164369481317852          1855.6584112957801     
   185.37684105691659          278.22545660037014          -10.159564765644614          1876.8628476026454     
   187.48910210325809          278.22536499228488          -10.154696628771582          1898.1842890801499     
   189.61403671587763          278.22527228516174          -10.149767306487403          1919.6232471910737     
   191.75172093617289          278.22517848162948          -10.144779082305572          1941.1802394004435     
   193.90223126178992          278.22508358430684          -10.139734290794893          1962.8557893918626     
   196.06564464936065          278.22498759579372          -10.134635320840784          1984.6504272956938     
   198.24203851725682          278.22489051866211          -10.129484619375893          2006.5646899304436     
   200.43149074836035          278.22479235544660          -10.124284695348212          2028.5991210582345     
   202.63407969285052          278.22469310863420          -10.119038123596942          2050.7542716545654     
   204.84988417100763          278.22459278065531          -10.113747549853857          2073.0307001952378     
   207.07898347603367          278.22449137387258          -10.108415695263856          2095.4289729598772     
   209.32145737688987          278.22438889057008          -10.103045361559019          2117.9496643539751     
   211.57738612115119          278.22428533294260          -10.097639436547000          2140.5933572506879     
   213.84685043787809          278.22418070308419          -10.092200899974216          2163.3606433537998     
   216.12993154050537          278.22407500297555          -10.086732829266062          2186.2521235821769     
   218.42671112974841          278.22396823447178          -10.081238406006614          2209.2684084780108     
   220.73727139652689          278.22386039928972          -10.075720922702043          2232.4101186401817     
   223.06169502490604          278.22375149899381          -10.070183789535850          2255.6778851834401     
   225.40006519505548          278.22364153498268          -10.064630541576895          2279.0723502251881     
   227.75246558622581          278.22353050847437          -10.059064846719219          2302.5941674023552     
   230.11898037974316          278.22341842049076          -10.053490512911010          2326.2440024175544     
   232.49969426202162          278.22330527184215          -10.047911496563328          2350.0225336181247     
   234.89469242759375          278.22319106311045          -10.042331910798213          2373.9304526086098     
   237.30406058215931          278.22307579463228          -10.036756034229464          2397.9684648988846     
   239.72788494565228          278.22295946648120          -10.031188319676142          2422.1372905887624     
   242.16625225532619          278.22284207844899          -10.025633403614773          2446.4376650918925     
   244.61924976885814          278.22272363002634          -10.020096115004236          2470.8703398985094     
   247.08696526747130          278.22260412038281          -10.014581485353563          2495.4360833811447     
   249.56948705907612          278.22248354834613          -10.009094758436085          2520.1356816436250     
   252.06690398143058          278.22236191238090          -10.003641400327265          2544.9699394153376     
   254.57930540531916          278.22223921056531          -9.9982271093530350          2569.9396809917789     
   257.10678123775108          278.22211544056898          -9.9928578270993249          2595.0457512252992     
   259.64942192517759          278.22199059962799          -9.9875397482678903          2620.2890165644994     
   262.20731845672867          278.22186468452048          -9.9822793319388250          2645.6703661471438     
   264.78056236746903          278.22173769154040          -9.9770833121566262          2671.1907129463052     
   267.36924574167386          278.22160961647120          -9.9719587087496055          2696.8509949717495     
   269.97346121612389          278.22148045455816          -9.9669128387297672          2722.6521765295179     
   272.59330198342064          278.22135020047943          -9.9619533270173104          2748.5952495394854     
   275.22886179532117          278.22121884831733          -9.9570881179204900          2774.6812349143793     
   277.88023496609310          278.22108639152736          -9.9523254859619907          2800.9111840001342     
   280.54751637588964          278.22095282290718          -9.9476740475117538          2827.2861800812911     
   283.23080147414498          278.22081813456441          -9.9431427714565892          2853.8073399505502     
   285.93018628298984          278.22068231788353          -9.9387409908387152          2880.4758155466870     
   288.64576740068776          278.22054536349191          -9.9344784137198126          2907.2927956604794     
   291.37764200509190          278.22040726122435          -9.9303651338515166          2934.2595077098126     
   294.12590785712246          278.22026800008803          -9.9264116421848403          2961.3772195879587     
   296.89066330426522          278.22012756822483          -9.9226288370446856          2988.6472415831822     
