 #              _____________________  _______________________             #
 #              ___  __ \__  __ \_  / / /_  /___  ____/_  ___/             #
 #              __  / / /_  /_/ /  / / /_  __/_  __/  _____ \              #
 #              _  /_/ /_  _, _// /_/ / / /_ _  /___  ____/ /              #
 #              /_____/ /_/ |_| \____/  \__/ /_____/  /____/               #
 #                                                                         #
  
 #        time                      T            heat flux [W.L-2]   in    x              directions   cumulative flux
 #-----------------------------------------------------------------------------------------------

   0.0000000000000000          277.73919999999998          -11.812938027026382          0.0000000000000000     
   1.0000000000000000          277.47783151416360          -146.04117293556979          0.0000000000000000     
   2.0060000000000002          277.23657439590966          -263.13219336996440          263.13219336996440     
   3.0180360000000004          277.01358934883791          -365.11575242139264          630.43864030588543     
   4.0361442160000003          276.80719817300576          -453.77748574597979          1089.6777918703037     
   5.0603610812960005          276.61587251503522          -530.69056257245620          1629.9782137789834     
   6.0907232477837763          276.43822274715541          -597.24267333040268          2241.6842324784516     
   7.1272675872704792          276.27298715450326          -654.65914937952209          2916.2202519441807     
   8.1700311927941023          276.11902155640900          -704.02285701079188          3645.9711592479734     
   9.2190513799508675          275.97528944557865          -746.29138671469900          4424.1766564298177     
   10.274365688230573          275.84085269675603          -782.31196252787367          5244.8376977757835     
   11.336011882359955          275.71486287172155          -812.83441959896606          6102.6334910408023     
   12.404027953654115          275.59655312882853          -838.52253674366125          6992.8477508664264     
   13.478452121376039          275.48523073143338          -859.96396143449624          7911.3030824122588     
   14.559322834104295          275.38027013954547          -877.67892485092887          8854.3025307722910     
   15.646678771108920          275.28110666196301          -892.12791234325698          9818.5774632315188     
   16.740558843735574          275.18723064143876          -903.71842838053465          10801.241061711582     
   17.841002196797987          275.09818214247957          -912.81097356107841          11799.746795764981     
   18.948048209978776          275.01354610982321          -919.72433359932438          12811.851325324114     
   20.061736499238648          274.93294796510577          -924.74026561822006          13835.581349604508     
   21.182106918234080          274.85604960947029          -928.10765497459795          14869.203976122160     
   22.309199559743483          274.78254580066266          -930.04620574938679          15911.200233342712     
   23.443054757101944          274.71216087434721          -930.74971957337311          16960.241393360800     
   24.583713085644554          274.64464578082800          -930.38901032225738          18015.167808279886     
   25.731215364158420          274.57977540997723          -929.11449617611333          19074.969996512842     
   26.885602656343369          274.51734617888081          -927.05850538732966          20138.771743760462     
   28.046916272281429          274.45717385845256          -924.33732769505275          21205.815008543828     
   29.215197769915118          274.39909161699995          -921.05303953347288          22275.446444355188     
   30.390488956534607          274.34294826041571          -917.29512790212516          23347.105370152767     
   31.572831890273815          274.28860665030248          -913.14193492014579          24420.313038397082     
   32.762268881615455          274.23594228289096          -908.66194260168436          25494.663065389926     
   33.958842494905149          274.18484201308155          -903.91491521750436          26569.812902575071     
   35.162595549874581          274.13520290931825          -898.95291469470840          27645.476239888620     
   36.373571123173825          274.08693122628819          -893.82120282235292          28721.416243382479     
   37.591812549912866          274.03994148363563          -888.55904254058623          29797.439539333296     
   38.817363425212342          273.99415563997837          -883.20040926985052          30873.390866018704     
   40.050267605763615          273.94950235253350          -877.77462206305813          31949.148322403755     
   41.290569211398200          273.90591631358603          -872.30690331889537          33024.619150229359     
   42.538312626666588          273.86333765589188          -866.81887486193659          34099.735992514979     
   43.793542502426590          273.82171141987976          -861.32899736489026          35174.453577356748     
   45.056303757441150          273.78098707622695          -855.85295934393378          36248.745781182864     
   46.326641579985797          273.74111809802906          -850.40402129375491          37322.603030381193     
   47.604601429465710          273.70206157736743          -844.99331993342321          38396.030004490189     
   48.890229038042506          273.66377788160571          -839.63013700226804          39469.043607992404     
   50.183570412270761          273.62623034522835          -834.32213656778117          40541.671181210724     
   51.484671834744383          273.58938499346482          -829.07557437898299          41613.948923917116     
   52.793579865752847          273.55321029433458          -823.89548241843886          42685.920508061339     
   54.110341344947365          273.51767693609730          -818.78583146167966          43757.635858537476     
   55.435003393017048          273.48275762741309          -813.74967414670846          44829.150083160952     
   56.767613413375152          273.44842691779672          -808.78927078223660          45900.522535052136     
   58.108219093855404          273.41466103621156          -803.90619987748528          46971.815992436874     
   59.456868408418536          273.38143774587320          -799.10145515667284          48043.095942499946     
   60.813609618869044          273.34873621354143          -794.37553062600307          49114.429957384433     
   62.178491276582257          273.31653689176369          -789.72849508468971          50185.887151732895     
   63.551562224241749          273.28482141269569          -785.16005731667633          51257.537712333484     
   64.932871597587194          273.25357249227625          -780.66962305889137          52329.452491475939     
   66.322468827172713          273.22277384366231          -776.25634471844774          53401.702656554407     
   67.720403640135743          273.19241009895086          -771.91916470008243          54474.359389285615     
   69.126726061976555          273.16246673831751          -767.65685310673018          55547.493628653167     
   70.541486418348413          273.13293002579741          -5671.3913653584741          63523.298468791181     
   71.964735336858510          273.10378695101826          -6905.8594909916810          73293.434703320556     
   73.396523748879659          273.07502517626773          -7608.7603921978862          84122.594702718605     
   74.836902891372944          273.04663298834799          -8748.9845300533925          96649.289369801365     
   76.285924308721178          273.01859925472610          -9913.6243358787397          110928.66708971487     
   77.743639854573502          272.99091338354509          -11035.451810817091          126919.27311370324     
   79.210101693700949          272.96356528710493          -12029.625869766078          144455.04575484857     
   80.685362303863158          272.93654534846667          -12800.715538628969          163226.80660577363     
   82.169474477686336          272.90984439086947          -13262.003944711576          182791.71863722240     
   83.662491324552448          272.90190763501244          -13321.201208955077          202561.87552138069     
   85.164466272499766          272.89379166139031          -13355.523225701432          222501.89669606465     
   86.675453070134765          272.88574748793343          -13358.661173702365          242566.27111708207     
   88.195505788555579          272.87783029558534          -13330.392720743601          262708.31852541532     
   89.724678823286908          272.87007853026034          -13271.867766425961          282882.25720229262     
   91.263026896226634          272.86252074709131          -13185.230048437021          303044.75544909184     
   92.810605057603993          272.85517744231913          -13073.342965902852          323156.10740756855     
   94.367468687949611          272.84786709431171          -12914.128372562094          343141.73045016942     
   95.933673500077305          272.84076158210814          -12730.748491290717          362961.76976333733     
   97.509275541077770          272.83386377447499          -12526.351752764382          382580.60215692112     
   99.094331194324241          272.82717336195202          -12304.068139854966          401966.91703068541     
   100.68889718149019          272.82068758727075          -12066.906098669993          421093.63475957653     
   102.29303056457913          272.81440183430351          -11817.680037644959          439937.70539481513     
   103.90678874796660          272.80831009871014          -11558.963808509445          458479.82511396200     
   105.53022948045439          272.80240536093345          -11293.065299035850          476704.10165581020     
   107.16341085733713          272.79667987943748          -11022.017472055932          494597.69377413800     
   108.80639132248115          272.79112541936780          -10757.911751793396          512167.31490131479     
   110.45922967041604          272.78573342930571          -10481.632360879630          529388.43211306143     
   112.12198504843853          272.78049517655438          -10204.703717781578          546255.15774712455     
   113.79471695872917          272.77540184947554          -9928.1666909692831          562763.27030643751     
   115.47748526048154          272.77044463377086          -9652.8644751604206          578909.92473974917     
   117.17035017204444          272.76561476825123          -9379.4659929381141          594693.39280002983     
   118.87337227307670          272.76090358453405          -9108.4888329587684          610112.83394270809     
   120.58661250671516          272.75630253420519          -8840.3211179914397          625168.09618686978     
   122.31013218175545          272.75180320625748          -8575.2419275901120          639859.54567040061     
   124.04399297484598          272.74739733703757          -8313.4400726312360          654187.92320284888     
   125.78825693269505          272.74307842960479          -8055.2330893262006          668154.57603563706     
   127.54298647429123          272.73883693757955          -7800.4701462680296          681760.65496605006     
   129.30824439313696          272.73466504571826          -7549.1638961629333          695007.39586899837     
   131.08409385949579          272.73055508122980          -7301.2949085593300          707896.06452416081     
   132.87059842265276          272.72649950647201          -7056.8223336258461          720427.91869951924     
   134.66782201318867          272.72249091059183          -6815.6932360629507          732604.18576682382     
   136.47582894526781          272.71852200057060          -6577.8507135274258          744426.05424419884     
   138.29468391893943          272.71458559205411          -6343.2409048761383          755894.67777206283     
   140.12445202245306          272.71067460028911          -6111.8189811816765          767011.19012416562     
   141.96519873458777          272.70678203144115          -5883.5541980768030          777776.72993110027     
   143.81698992699529          272.70290097454256          -5658.4340735718442          788192.47384785872     
   145.67989186655726          272.69902459429210          -5436.4677407980698          798259.67692807619     
   147.55397121775661          272.69514612491690          -5217.6885120083080          807979.71897712664     
   149.43929504506315          272.69125886529542          -5002.1556786801220          817354.15564602555     
   151.33593081533354          272.68735617553216          -4789.9555631605226          826384.77300099155     
   153.24394640022555          272.68343147516742          -4581.2018307397630          835073.64426400070     
   155.16341007862690          272.67947824319640          -4376.0350675348072          843423.18737289100     
   157.09439053909867          272.67549002005768          -4174.6216293632770          851436.22196152247     
   159.03695688233327          272.67146041173345          -3977.1517704339872          859116.02431856119     
   160.99117862362726          272.66738309607354          -3783.8370677939674          866466.37885474123     
   162.95712569536903          272.66325183142135          -3594.9071687415103          873491.62460182956     
   164.93486844954126          272.65906046756913          -3410.6059029985904          880196.69528969482     
   166.92447766023849          272.65480295900596          -3231.1868190800587          886587.15160850715     
   168.92602452619994          272.65047338034799          -3056.9082246270364          892669.20436848130     
   170.93958067335714          272.64606594374783          -2892.0520389983321          898457.78206333576     
   172.96521815739729          272.64157501797541          -2728.6176827643321          903952.00697170768     
   175.00300946634167          272.63699514874770          -2571.0739448072545          909160.07072854822     
   177.05302752313972          272.63232523994077          -2419.7931013934958          914091.10408001149     
   179.11534568827855          272.62755616825478          -2274.8042199456172          918754.49380658043     
   181.19003776240822          272.62268313398164          -2136.2791567318645          923160.18111731601     
   183.27717798898269          272.61770159488486          -2004.3569113376893          927318.60451499536     
   185.37684105691659          272.61260728217695          -1879.1397429053932          931240.63266376802     
   187.48910210325809          272.60739621276451          -1760.6901449578390          934937.48873521120     
   189.61403671587763          272.60206469666122          -1649.0287923686749          938420.66801762709     
   191.75172093617289          272.59660933848085          -1544.1335367041554          941701.85081627639     
   193.90223126178992          272.59102703198636          -1445.9394831887157          944792.81283299078     
   196.06564464936065          272.58531494677908          -1354.3401363764015          947705.33528066578     
   198.24203851725682          272.57947050637785          -1269.1895556226075          950451.11695666471     
   200.43149074836035          272.57349135713673          -1190.3054184684240          953041.69037034293     
   202.63407969285052          272.56737532768761          -1117.4728534340857          955488.34380249179     
   204.84988417100763          272.56112037885021          -1050.4488757563072          957802.05088298477     
   207.07898347603367          272.55472454420709          -988.96724205112105          959993.40892667230     
   209.32145737688987          272.54818586178845          -932.74353360832049          962072.58688920620     
   211.57738612115119          272.54150229752003          -881.48028268589553          964049.28341724863     
   213.84685043787809          272.53467166125489          -834.87197075553240          965932.69509385410     
   216.12993154050537          272.52769151631389          -792.60975019473494          967731.49463901087     
   218.42671112974841          272.52055908349928          -754.38576914743464          969453.81853264233     
   220.73727139652689          272.51327114613730          -719.89741441618389          971107.26422042225     
   223.06169502490604          272.50810110740770          -700.66041347567352          972726.18233230372     
   225.40006519505548          272.50293009749731          -683.29896812490449          974314.45859906031     
   227.75246558622581          272.49776758253648          -666.96609242560032          975874.07221408945     
   230.11898037974316          272.49261704562127          -651.97508930387141          977407.77866920119     
   232.49969426202162          272.48748572352719          -638.24577004357741          978918.19672590913     
   234.89469242759375          272.48238128887368          -625.69816387315984          980407.80503075814     
   237.30406058215931          272.47731186040045          -614.25500652477001          981878.94464457850     
   239.72788494565228          272.47228597425197          -603.84218629130942          983333.82277861203     
   242.16625225532619          272.46731254733334          -594.38907759783103          984774.51750628778     
   244.61924976885814          272.46240083147478          -585.82877496143078          986202.98324022000     
   247.08696526747130          272.45756035732313          -578.09824035332417          987621.05678638385     
   249.56948705907612          272.45280086716360          -571.13837670623582          989030.46381043456     
   252.06690398143058          272.44793373562788          -564.51934598793878          990431.89538863208     
   254.57930540531916          272.44313739104700          -558.55486584897778          991826.83976266673     
   257.10678123775108          272.43841813096583          -553.19430026139548          993216.68591033050     
   259.64942192517759          272.43378203302046          -548.39086379884122          994602.73056530859     
   262.20731845672867          272.42923488501498          -544.10143546371864          995986.18501320586     
   264.78056236746903          272.42478211532142          -540.28636256003290          997368.18162604247     
   267.36924574167386          272.42042872541191          -536.90925963086374          998749.78010900773     
   269.97346121612389          272.41617922641188          -533.93680644377264          1000131.9734427248     
   272.59330198342064          272.41203758154762          -531.33854809554941          1001515.6935118471     
   275.22886179532117          272.40800715622680          -529.08669952161222          1002901.8164166883     
   277.88023496609310          272.40409067725727          -527.15595604528880          1004291.1674690453     
   280.54751637588964          272.40029020238262          -525.52331106950533          1005684.5258766302     
   283.23080147414498          272.39660710091550          -524.16788160551971          1007082.6291228491     
   285.93018628298984          272.39304204581310          -523.07074201692137          1008486.1770502365     
   288.64576740068776          272.38959501709087          -522.21476613483526          1009895.8356568953     
   291.37764200509190          272.38626531604348          -521.58447774297849          1011312.2406159384     
   294.12590785712246          272.38305158935987          -521.16590932933480          1012736.0005283165     
   296.89066330426522          272.37995186190841          -520.94646893636104          1014167.6999196302     
