 #              _____________________  _______________________             #
 #              ___  __ \__  __ \_  / / /_  /___  ____/_  ___/             #
 #              __  / / /_  /_/ /  / / /_  __/_  __/  _____ \              #
 #              _  /_/ /_  _, _// /_/ / / /_ _  /___  ____/ /              #
 #              /_____/ /_/ |_| \____/  \__/ /_____/  /____/               #
 #                                                                         #
  
 #        time                      T            heat flux [W.L-2]   in    x              directions   cumulative flux
 #-----------------------------------------------------------------------------------------------

   0.0000000000000000          278.72980000000001          -5.9870954330316444          0.0000000000000000     
   1.0000000000000000          278.72924161990233          -5.8094553980824681          0.0000000000000000     
   2.0060000000000002          278.72871169855364          -5.6461341335275756          5.6461341335275756     
   3.0180360000000004          278.72820804053140          -5.4959175541932730          11.175027193046009     
   4.0361442160000003          278.72772862582889          -5.3576939687715717          16.597206366425716     
   5.0603610812960005          278.72727159600930          -5.2304458135012366          21.922366222494126     
   6.0907232477837763          278.72683524139308          -5.1132420086610679          27.159434924104787     
   7.1272675872704792          278.72641798920870          -5.0052308956176281          32.316635473484915     
   8.1700311927941023          278.72601839264007          -4.9056337136055292          37.401542330917856     
   9.2190513799508675          278.72563512070718          -4.8137385785292564          42.421133727113180     
   10.274365688230573          278.72526694892366          -4.7288949287709743          47.381839970337182     
   11.336011882359955          278.72491275067449          -4.6505084045413945          52.289588030424738     
   12.404027953654115          278.72457148926344          -4.5780361294952288          57.149842663890162     
   13.478452121376039          278.72424221058185          -4.5109823661669557          61.967644328281025     
   14.559322834104295          278.72392403635405          -4.4488945174233550          66.747644117446242     
   15.646678771108920          278.72361615791630          -4.3913594484652920          71.494135934354887     
   16.740558843735574          278.72331783049168          -4.3380001063694404          76.211086104742392     
   17.841002196797987          278.72302836792187          -4.2884724137651284          80.902160620169184     
   18.948048209978776          278.72274713782394          -4.2424624172992145          85.570750187903201     
   20.061736499238648          278.72247355713847          -4.1996836706206819          90.219993252084279     
   21.182106918234080          278.72220708804002          -4.1598748344528644          94.852797140001286     
   22.309199559743483          278.72194723418181          -4.1227974763440249          99.471857476006150     
   23.443054757101944          278.72169353724951          -4.0882340559798340          104.07967599726916     
   24.583713085644554          278.72144557379909          -4.0559860796807961          108.67857689412880     
   25.731215364158420          278.72120295235709          -4.0258724121736043          113.27072179072455     
   26.885602656343369          278.72096531076375          -3.9977277329513732          117.85812347316433     
   28.046916272281429          278.72073231373685          -3.9714011244719920          122.44265846342381     
   29.215197769915118          278.72050365064155          -3.9467547830595842          127.02607853175957     
   30.390488956534607          278.72027903344809          -3.9236628420012925          131.61002123302248     
   31.572831890273815          278.72005819486259          -3.9020102970486921          136.19601954524231     
   32.762268881615455          278.71984088661685          -3.8816920268083357          140.78551068409098     
   33.958842494905149          278.71962687790352          -3.8626118993775251          145.37984416040700     
   35.162595549874581          278.71941595394532          -3.8446819584533416          149.98028914338320     
   36.373571123173825          278.71920791468756          -3.8278216822988589          154.58804118732868     
   37.591812549912866          278.71900257360210          -3.8119573089272500          159.20422837489912     
   38.817363425212342          278.71879975659488          -3.7970212222309407          163.82991692602818     
   40.050267605763615          278.71859930100760          -3.7829513935177443          168.46611631756923     
   41.290569211398200          278.71840105470562          -3.7696908741317143          173.11378395567220     
   42.538312626666588          278.71820487524445          -3.7571873341531714          177.77382943889231     
   43.793542502426590          278.71801062910890          -3.7453926433256499          182.44711844719654     
   45.056303757441150          278.71781819101767          -3.7342624909327951          187.13447628974535     
   46.326641579985797          278.71762744328811          -3.7237560402628498          191.83669114051571     
   47.604601429465710          278.71743827525586          -3.7138356152256389          196.55451698925020     
   48.890229038042506          278.71725058274507          -3.7044664165314871          201.28867633332419     
   50.183570412270761          278.71706426758317          -3.6956162635280219          206.03986263242123     
   51.484671834744383          278.71687923715865          -3.6872553607544756          210.80874254782992     
   52.793579865752847          278.71669540401581          -3.6793560859714365          215.59595798507434     
   54.110341344947365          278.71651268548436          -3.6718927983307585          220.40212795781162     
   55.435003393017048          278.71633100334094          -3.6648416642475796          225.22785028863996     
   56.767613413375152          278.71615028349839          -3.6581804999552836          230.07370316191930     
   58.108219093855404          278.71597045572236          -3.6518886285029488          234.94024654149413     
   59.456868408418536          278.71579145337063          -3.6459467505850109          239.82802346605692     
   60.813609618869044          278.71561321315420          -3.6403368269859202          244.73756123255041     
   62.178491276582257          278.71543567491892          -3.6350419725905363          249.66937247848131     
   63.551562224241749          278.71525878144411          -3.6300463600090334          254.62395617190626     
   64.932871597587194          278.71508247825773          -3.6253351323138152          259.60179851761563     
   66.322468827172713          278.71490671346658          -3.6208943239584834          264.60337378719282     
   67.720403640135743          278.71473143759988          -3.6167107890203751          269.62914507982759     
   69.126726061976555          278.71455660346510          -3.6127721360326688          274.67956502009048     
   70.541486418348413          278.71438216601473          -3.6090666688808426          279.75507639845597     
   71.964735336858510          278.71420808222382          -3.6055833332293017          284.85611275990391     
   73.396523748879659          278.71403431097644          -3.6023116677575948          289.98309894517621     
   74.836902891372944          278.71386081296043          -3.5992417597536144          295.13645158885407     
   76.285924308721178          278.71368755057000          -3.5963642048637396          300.31657957834921     
   77.743639854573502          278.71351448781559          -3.5936700703433826          305.52388447716010     
   79.210101693700949          278.71334159023991          -3.5911508616205929          310.75876091564544     
   80.685362303863158          278.71316882483973          -3.5887984917767408          316.02159695215414     
   82.169474477686336          278.71299615999311          -3.5866052536679014          321.31277440709124     
   83.662491324552448          278.71282356539183          -3.5845637944450353          326.63266917227293     
   85.164466272499766          278.71265101197758          -3.5826670923309494          331.98165149783586     
   86.675453070134765          278.71247847188323          -3.5809084354578378          337.36008625878674     
   88.195505788555579          278.71230591837679          -3.5792814018765364          342.76833320204270     
   89.724678823286908          278.71213332580965          -3.5777798420405778          348.20674717684767     
   91.263026896226634          278.71196066956782          -3.5763978622811612          353.67567834931879     
   92.810605057603993          278.71178792602552          -3.5751298092822776          359.17547240193755     
   94.367468687949611          278.71161507250258          -3.5739702566035878          364.70647072046950     
   95.933673500077305          278.71144208722296          -3.5729139914575523          370.26901056812278     
   97.509275541077770          278.71126894927653          -3.5719560028820352          375.86342524854501     
   99.094331194324241          278.71109563858283          -3.5710914707422261          381.49004425844583     
   100.68889718149019          278.71092213585621          -3.5703157554875076          387.14919343055624     
   102.29303056457913          278.71074842257377          -3.5696243888492649          392.84119506797327     
   103.90678874796660          278.71057448094416          -3.5690130648882730          398.56636807004111     
   105.53022948045439          278.71040029387797          -3.5684776319344604          404.32502805081049     
   107.16341085733713          278.71022584496006          -3.5680140849460535          410.11748745040211     
   108.80639132248115          278.71005111842322          -3.5676185585797002          415.94405564009566     
   110.45922967041604          278.70987609912277          -3.5672873204898274          421.80503902121643     
   112.12198504843853          278.70970077251195          -3.5670167651062576          427.70074111831070     
   113.79471695872917          278.70952512461997          -3.5668034081280027          433.63146266752449     
   115.47748526048154          278.70934914202917          -3.5666438809303846          439.59750169979958     
   117.17035017204444          278.70917281185456          -3.5665349257878347          445.59915362000811     
   118.87337227307670          278.70899612172332          -3.5664733908450543          451.63671128139242     
   120.58661250671516          278.70881905975625          -3.5664562261193633          457.71046505683785     
   122.31013218175545          278.70864161454892          -3.5664804790910281          463.82070290610278     
   124.04399297484598          278.70846377515397          -3.5665432909604666          469.96771043995608     
   125.78825693269505          278.70828553106480          -3.5666418931186867          476.15177098142874     
   127.54298647429123          278.70810687219864          -3.5667736036239228          482.37316562403743     
   129.30824439313696          278.70792778888131          -3.5669358241393314          488.63217328763238     
   131.08409385949579          278.70774827183243          -3.5671260370367373          494.92907077203233     
   132.87059842265276          278.70756831215050          -3.5673418024585586          501.26413280824789     
   134.66782201318867          278.70738790129923          -3.5675807559024055          507.63763210809856     
   136.47582894526781          278.70720703109424          -3.5678406057856797          514.04983941208855     
   138.29468391893943          278.70702569368996          -3.5681191311179306          520.50102353563398     
   140.12445202245306          278.70684388156724          -3.5684141796635567          526.99145141443535     
   141.96519873458777          278.70666158752113          -3.5687236657373402          533.52138814825582     
   143.81698992699529          278.70647880464924          -3.5690455685521685          540.09109704402726     
   145.67989186655726          278.70629552634063          -3.5693779307896576          546.70083965863739     
   147.55397121775661          278.70611174626424          -3.5697188567547071          553.35087584057669     
   149.43929504506315          278.70592745835893          -3.5700665112950833          560.04146377180314     
   151.33593081533354          278.70574265682239          -3.5704191183733860          566.77286000914330     
   153.24394640022555          278.70555733610161          -3.5707749603025078          573.54531952643879     
   155.16341007862690          278.70537149088244          -3.5711323764573906          580.35909575643188     
   157.09439053909867          278.70518511608049          -3.5714897625880000          587.21444063350179     
   159.03695688233327          278.70499820683114          -3.5718455700816762          594.11160463715214     
   160.99117862362726          278.70481075848068          -3.5721983054148474          601.05083683661064     
   162.95712569536903          278.70462276657662          -3.5725465295288190          608.03238493640026     
   164.93486844954126          278.70443422685935          -3.5728888576742888          615.05649532380380     
   166.92447766023849          278.70424513525279          -3.5732239590795496          622.12341311790794     
   168.92602452619994          278.70405548785556          -3.5735505568224495          629.23338222065422     
   170.93958067335714          278.70386528093275          -3.5738674279491276          636.38664537042746     
   172.96521815739729          278.70367451090664          -3.5741734034839587          643.58344419801836     
   175.00300946634167          278.70348317434849          -3.5744673686593185          650.82401928545301     
   177.05302752313972          278.70329126796958          -3.5747482634589218          658.10861022839367     
   179.11534568827855          278.70309878861275          -3.5750150829906975          665.43745570185001     
   181.19003776240822          278.70290573324331          -3.5752668780272598          672.81079352962490     
   183.27717798898269          278.70271209894065          -3.5755027559678036          680.22886075846009     
   185.37684105691659          278.70251788288920          -3.5757218814908831          687.69189373636220     
   187.48910210325809          278.70232308236950          -3.5759234776753259          695.20012819619478     
   189.61403671587763          278.70212769474887          -3.5761068270729401          702.75379934457681     
   191.75172093617289          278.70193171747229          -3.5762712729989654          710.35314195668923     
   193.90223126178992          278.70173514805299          -3.5764162208771557          717.99839047726630     
   196.06564464936065          278.70153798406244          -3.5765411397107592          725.68977912820844     
   198.24203851725682          278.70134022312033          -3.5766455637266974          733.42754202337028     
   200.43149074836035          278.70114186288527          -3.5767290943703527          741.21191329148371     
   202.63407969285052          278.70094290104305          -3.5767914018767764          749.04312720651478     
   204.84988417100763          278.70074333529669          -3.5768322275478797          756.92141832720790     
   207.07898347603367          278.70054316335489          -3.5768513858651043          764.84702164571024     
   209.32145737688987          278.70034238292072          -3.5768487668175957          772.82017274600662     
   211.57738612115119          278.70014099167940          -3.5768243382518237          780.84110797248354     
   213.84685043787809          278.69993898728626          -3.5767781485518557          788.91006460964752     
   216.12993154050537          278.69973636735375          -3.5767103294229861          797.02728107354153     
   218.42671112974841          278.69953312943829          -3.5766210986475842          805.19299711512178     
   220.73727139652689          278.69932927102627          -3.5765107629965995          813.40745403628034     
   223.06169502490604          278.69912478952000          -3.5763797216076654          821.67089491993931     
   225.40006519505548          278.69891968222237          -3.5762284688597927          829.98356487343926     
   227.75246558622581          278.69871394632207          -3.5760575981531426          838.34571128769676     
   230.11898037974316          278.69850757887673          -3.5758678049920674          846.75758411093352     
   232.49969426202162          278.69830057679707          -3.5756598910785597          855.21943613975759     
   234.89469242759375          278.69809293682857          -3.5754347676770974          863.73152332634754     
   237.30406058215931          278.69788465553404          -3.5751934596624619          872.29410510380467     
   239.72788494565228          278.69767572927452          -3.5749371093429523          880.90744472963024     
   242.16625225532619          278.69746615419001          -3.5746669807904570          889.57180964904398     
   244.61924976885814          278.69725592617885          -3.5743844638451572          898.28747187789031     
   247.08696526747130          278.69704504087690          -3.5740910784420814          907.05470840644546     
   249.56948705907612          278.69683349363538          -3.5737884790522623          915.87380162496788     
   252.06690398143058          278.69662127949852          -3.5734784590496895          924.74503977138920     
   254.57930540531916          278.69640839317958          -3.5731629553982787          933.66871740253089     
   257.10678123775108          278.69619482903659          -3.5728440531092196          942.64513588889440     
   259.64942192517759          278.69598058104714          -3.5725239900852461          951.67460393461806     
   262.20731845672867          278.69576564278208          -3.5722051618443751          960.75743812295855     
   264.78056236746903          278.69555000737836          -3.5718901262826761          969.89396348805849     
   267.36924574167386          278.69533366751091          -3.5715816086381151          979.08451411419878     
   269.97346121612389          278.69511661536387          -3.5712825062652911          988.32943376275625     
   272.59330198342064          278.69489884260020          -3.5709958935238140          997.62907652786851     
   275.22886179532117          278.69468034033110          -3.5707250269110213          1006.9838075221768     
   277.88023496609310          278.69446109908421          -3.5704733498175343          1016.3940035924177     
   280.54751637588964          278.69424110877048          -3.5702444975414589          1025.8600540662951     
   283.23080147414498          278.69402035865056          -3.5700423023174959          1035.3823615314539     
   285.93018628298984          278.69379883729960          -3.5698707981046192          1044.9613426467049     
   288.64576740068776          278.69357653257231          -3.5697342256342837          1054.5974289869957     
   291.37764200509190          278.69335343156519          -3.5696370370025958          1064.2910679217152     
   294.12590785712246          278.69312952057953          -3.5695839007991301          1074.0427235285981     
   296.89066330426522          278.69290478508219          -3.5695797065370427          1083.8528775421751     
