 #              _____________________  _______________________             #
 #              ___  __ \__  __ \_  / / /_  /___  ____/_  ___/             #
 #              __  / / /_  /_/ /  / / /_  __/_  __/  _____ \              #
 #              _  /_/ /_  _, _// /_/ / / /_ _  /___  ____/ /              #
 #              /_____/ /_/ |_| \____/  \__/ /_____/  /____/               #
 #                                                                         #
  
 #        time                      T            heat flux [W.L-2]   in    x              directions   cumulative flux
 #-----------------------------------------------------------------------------------------------

   0.0000000000000000          278.48070000000001          -3.9814014843330674          0.0000000000000000     
   1.0000000000000000          278.48125902412863          -4.1589197275528536          0.0000000000000000     
   2.0060000000000002          278.48178955674905          -4.3221337524681358          4.3221337524681358     
   3.0180360000000004          278.48229379571734          -4.4722566037683471          8.8212238958590934     
   4.0361442160000003          278.48277376305919          -4.6103994158208579          13.487114079048771     
   5.0603610812960005          278.48323131876174          -4.7375796696433561          18.310482864667236     
   6.0907232477837763          278.48366817352905          -4.8547288162701872          23.282777994729649     
   7.1272675872704792          278.48408590057278          -4.9626993112424369          28.396155608688801     
   8.1700311927941023          278.48448594650472          -5.0622711024244369          33.643424064853960     
   9.2190513799508675          278.48486964139971          -5.1541576122410389          39.017992040031451     
   10.274365688230573          278.48523820808452          -5.2390112498304680          44.513820601845005     
   11.336011882359955          278.48559277071092          -5.3174284890863071          50.125378969631917     
   12.404027953654115          278.48593436266532          -5.3899545444943628          55.847603698324733     
   13.478452121376039          278.48626393386144          -5.4570876751022528          61.675861037795222     
   14.559322834104295          278.48658235746365          -5.5192831453774236          67.605912237689012     
   15.646678771108920          278.48689043608204          -5.5769568686272279          73.633881583136869     
   16.740558843735574          278.48718890747779          -5.6304887578718779          79.756226962246657     
   17.841002196797987          278.48747844981688          -5.6802258074255549          85.969712781009108     
   18.948048209978776          278.48775968650392          -5.7264849257483128          92.271385053960941     
   20.061736499238648          278.48803319062961          -5.7695555401001215          98.658548512453905     
   21.182106918234080          278.48829948905956          -5.8097019910179322          105.12874558394034     
   22.309199559743483          278.48855906619076          -5.8471657332965421          111.67973710648953     
   23.443054757101944          278.48881236740249          -5.8821673602849991          118.30948465439354     
   24.583713085644554          278.48905980222389          -5.9149084653760129          125.01613435975969     
   25.731215364158420          278.48930174723830          -5.9455733542457718          131.79800212424115     
   26.885602656343369          278.48953854874577          -5.9743306209428102          138.65356012436820     
   28.046916272281429          278.48977052520161          -6.0013345989908249          145.58142452159308     
   29.215197769915118          278.48999796944605          -6.0267266977566720          152.58034429523534     
   30.390488956534607          278.49022115074308          -6.0506366350755156          159.64919112489861     
   31.572831890273815          278.49044031663982          -6.0731835736289552          166.78695025370698     
   32.762268881615455          278.49065569466211          -6.0944771707963898          173.99271227143299     
   33.958842494905149          278.49086749385685          -6.1146185484416611          181.26566576089326     
   35.162595549874581          278.49107590619178          -6.1337011899876117          188.60509075663603     
   36.373571123173825          278.49128110782431          -6.1518117711675497          196.01035296977588     
   37.591812549912866          278.49148326024817          -6.1690309301136370          203.48089873707104     
   38.817363425212342          278.49168251132545          -6.1854339817054385          211.01625065594405     
   40.050267605763615          278.49187899621381          -6.2010915813883178          218.61600387132671     
   41.290569211398200          278.49207283819470          -6.2160703423563843          226.27982298301868     
   42.538312626666588          278.49226414940989          -6.2304334100712992          234.00743954532945     
   43.793542502426590          278.49245303151281          -6.2442409975692090          241.79865013339534     
   45.056303757441150          278.49263957623987          -6.2575508845872987          249.65331495281774     
   46.326641579985797          278.49282386590704          -6.2704188832211232          257.57135697126103     
   47.604601429465710          278.49300597383751          -6.2828992727878870          265.55276155272173     
   48.890229038042506          278.49318596472409          -6.2950452060338593          273.59757657669400     
   50.183570412270761          278.49336389493118          -6.3069090883404861          281.70591302544841     
   51.484671834744383          278.49353981273941          -6.3185429317522681          289.87794602392114     
   52.793579865752847          278.49371375853804          -6.3299986855408594          298.11391631793452     
   54.110341344947365          278.49388576496796          -6.3413285445878067          306.41413217720873     
   55.435003393017048          278.49405585701811          -6.3525852363180872          314.77897170969220     
   56.767613413375152          278.49422405207906          -6.3638222874939059          323.20888557459540     
   58.108219093855404          278.49439035995698          -6.3750942720059083          331.70440008219799     
   59.456868408418536          278.49455478285023          -6.3864570396936777          340.26612066775442     
   60.813609618869044          278.49471731529133          -6.3979679277286596          348.89473572808259     
   62.178491276582257          278.49487794405758          -6.4096859542352176          357.59102080823931     
   63.551562224241749          278.49503664805206          -6.4216719953131083          366.35584312649280     
   64.932871597587194          278.49519339815816          -6.4339889457929269          375.19016642552339     
   66.322468827172713          278.49534815706880          -6.4467018636518514          384.09505613694927     
   67.720403640135743          278.49550087909449          -6.4598780990985789          393.07168484691687     
   69.126726061976555          278.49565150995079          -6.4735874082699363          402.12133804969659     
   70.541486418348413          278.49579998652769          -6.4879020516522523          411.24542017564215     
   71.964735336858510          278.49594623664410          -6.5028968781728986          420.44546088045547     
   73.396523748879659          278.49609017878777          -6.5186493945250739          429.72312158135975     
   74.836902891372944          278.49623172184374          -6.5352398203594886          439.08020222592967     
   76.285924308721178          278.49637076481378          -6.5527511296936050          448.51864827908958     
   77.743639854573502          278.49650719652703          -6.5712690785006407          458.04055791299521     
   79.210101693700949          278.49664089534514          -6.5908822188593454          467.64818938430818     
   80.685362303863158          278.49677172886368          -6.6116819002975440          477.34396858354415     
   82.169474477686336          278.49689955361060          -6.6337622577287148          487.13049673955203     
   83.662491324552448          278.49702421474410          -6.6572201865835723          497.01055826228213     
   85.164466272499766          278.49714554575280          -6.6821553059631293          506.98712870746090     
   86.675453070134765          278.49726336815769          -6.7086699086013670          517.06338284422816     
   88.195505788555579          278.49737749121920          -6.7368688990247945          527.24270280805240     
   89.724678823286908          278.49748771165105          -6.7668597191787203          537.52868631936224     
   91.263026896226634          278.49759381334087          -6.7987522622666194          547.92515494863903     
   92.810605057603993          278.49769556708219          -6.8326587744533738          558.43616240737401     
   94.367468687949611          278.49779273031641          -6.8686937448969161          569.06600284416572     
   95.933673500077305          278.49788504688888          -6.9069737843093177          579.81921912470762     
   97.509275541077770          278.49797224681856          -6.9476174916842659          590.70061107300603     
   99.094331194324241          278.49805404608435          -6.9907453099711105          601.71524365151095     
   100.68889718149019          278.49813014642916          -7.0364793711085554          612.86845505763870     
   102.29303056457913          278.49820023518396          -7.0849433301715088          624.16586471292840     
   103.90678874796660          278.49826398511050          -7.1362621891492042          635.61338112101805     
   105.53022948045439          278.49832105426873          -7.1905621114346507          647.21720957150160     
   107.16341085733713          278.49837108590600          -7.2479702266140826          658.98385966524575     
   108.80639132248115          278.49841370837191          -7.3086144268030564          670.92015263791689     
   110.45922967041604          278.49844853505817          -7.3726231546459271          683.03322845786863     
   112.12198504843853          278.49847516436688          -7.4401251845116452          695.33055267626560     
   113.79471695872917          278.49849317970586          -7.5112493965882461          707.81992300611091     
   115.47748526048154          278.49850214951294          -7.5861245452801853          720.50947560844008     
   117.17035017204444          278.49850162731116          -7.6648790232133397          733.40769106547020     
   118.87337227307670          278.49849115179234          -7.7476406206865391          746.52340001962978     
   120.58661250671516          278.49847024693327          -7.8345362825282772          759.86578846011457     
   122.31013218175545          278.49843842214227          -7.9256918628536841          773.44440263897650     
   124.04399297484598          278.49839517243737          -8.0212318788787744          787.26915360028443     
   125.78825693269505          278.49833997865568          -8.1212792648348415          801.35032130732066     
   127.54298647429123          278.49827230769438          -8.2259551267753963          815.69855835383885     
   129.30824439313696          278.49819161278356          -8.3353785001603544          830.32489324845585     
   131.08409385949579          278.49809733378811          -8.4496661099768353          845.24073326069504     
   132.87059842265276          278.49798889754186          -8.5689321356888133          860.45786682112293     
   134.66782201318867          278.49786571820971          -8.6932879810050032          875.98846546802611     
   136.47582894526781          278.49772719767935          -8.8228420502388740          891.84508533628764     
   138.29468391893943          278.49757272598015          -8.9576995313112313          908.04066818438037     
   140.12445202245306          278.49740168172968          -9.0979621875558738          924.58854195949255     
   141.96519873458777          278.49721343260444          -9.2437281577007564          941.50242090000427     
   143.81698992699529          278.49700733583558          -9.3950917659416291          958.79640517836526     
   145.67989186655726          278.49678273872718          -9.5521433423993063          976.48498008843444     
   147.55397121775661          278.49653897919484          -9.7149690541953504          994.58301478227952     
   149.43929504506315          278.49627538632535          -9.8836507490853300          1013.1057605656063     
   151.33593081533354          278.49599128095247          -10.058265810386464          1032.0688487593106     
   153.24394640022555          278.49568597624972          -10.238887025161350          1051.4882881389890     
   155.16341007862690          278.49535877833705          -10.425582465497028          1071.3804619647342     
   157.09439053909867          278.49500898689945          -10.618415382853170          1091.7621246142990     
   159.03695688233327          278.49463589581626          -10.817444116608065          1112.6503978357143     
   160.99117862362726          278.49423879379822          -11.022722016112622          1134.0627666350456     
   162.95712569536903          278.49381696503178          -11.234297377275219          1156.0170748178789     
   164.93486844954126          278.49336968982647          -11.452213392988847          1178.5315202027871     
   166.92447766023849          278.49289624526546          -11.676508117927147          1201.6246495270505     
   168.92602452619994          278.49239590585580          -11.907214447546853          1225.3153530656371     
   170.93958067335714          278.49186794417716          -12.144360111292121          1249.6228589855009     
   172.96521815739729          278.49131163152663          -12.387967679755270          1274.5667274578568     
   175.00300946634167          278.49072623855756          -12.638054585702642          1300.1668445520015     
   177.05302752313972          278.49011103591090          -12.894633158800817          1326.4434159350319     
   179.11534568827855          278.48946529483703          -13.157710673972153          1353.4169604027993     
   181.19003776240822          278.48878828780545          -13.427289412577291          1381.1083032669339     
   183.27717798898269          278.48807928910168          -13.703366736559850          1409.5385696241669     
   185.37684105691659          278.48733757540873          -13.985935175515802          1438.7291775352485     
   187.48910210325809          278.48656242637168          -14.274982525365184          1468.7018311391596     
   189.61403671587763          278.48575312514339          -14.570491959088908          1499.4785137303752     
   191.75172093617289          278.48490895891047          -14.872442149002712          1531.0814808269729     
   193.90223126178992          278.48402921939726          -15.180807399758912          1563.5332532567791     
   196.06564464936065          278.48311320334597          -15.495557792051169          1596.8566102897807     
   198.24203851725682          278.48216021297293          -15.816659336398923          1631.0745828447918     
   200.43149074836035          278.48116955639796          -16.144074136465701          1666.2104467982570     
   202.63407969285052          278.48014054804662          -16.477760561964004          1702.2877164242391     
   204.84988417100763          278.47907250902369          -16.817673429842792          1739.3301379928566     
   207.07898347603367          278.47796476745651          -17.163764194054981          1777.3616835560763     
   209.32145737688987          278.47681665880719          -17.515981143204250          1816.4065449492423     
   211.57738612115119          278.47562752615352          -17.874269605745823          1856.4891280369945     
   213.84685043787809          278.47439672043510          -18.238572161690140          1897.6340472308359     
   216.12993154050537          278.47312360066678          -18.608828861277154          1939.8661203075822     
   218.42671112974841          278.47180753411698          -18.984977447345560          1983.2103635514218     
   220.73727139652689          278.47044789645116          -19.366953580033162          2027.6919872398591     
   223.06169502490604          278.46904407184178          -19.754691059957963          2073.3363914854822     
   225.40006519505548          278.46759545304423          -20.148122045889401          2120.1691624364148     
   227.75246558622581          278.46610144144370          -20.547177262994396          2168.2160688289737     
   230.11898037974316          278.46456144707395          -20.951786196918579          2217.5030588743221     
   232.49969426202162          278.46297488861222          -21.361877269361511          2268.0562574495680     
   234.89469242759375          278.46134119335551          -21.777377991393259          2319.9019635533032     
   237.30406058215931          278.45965979718318          -22.198215090849740          2373.0666479748638     
   239.72788494565228          278.45793014451175          -22.624314611477679          2427.5769511186304     
   242.16625225532619          278.45615168824753          -23.055601981694959          2483.4596809168593     
   244.61924976885814          278.45432388974399          -23.492002052596082          2540.7418107607018     
   247.08696526747130          278.45244621876878          -23.933439104464401          2599.4504773742215     
   249.56948705907612          278.45051815348779          -24.379836823969878          2659.6129785583917     
   252.06690398143058          278.44853918046920          -24.831118252243385          2721.2567707295020     
   254.57930540531916          278.44650879471453          -25.287205707849068          2784.4094661833424     
   257.10678123775108          278.44442649971950          -25.748020686775956          2849.0988300191111     
   259.64942192517759          278.44229180756747          -26.213483743394981          2915.3527766643888     
   262.20731845672867          278.44010423905928          -26.683514356201002          2983.1993659499949     
   264.78056236746903          278.43786332387936          -27.158030782447696          3052.6667986921748     
   267.36924574167386          278.43556860079889          -27.636949905544974          3123.7834117480552     
   269.97346121612389          278.43321961791742          -28.120187080010069          3196.5776725216065     
   272.59330198342064          278.43081593293886          -28.607655977198011          3271.0781729051687     
   275.22886179532117          278.42835711348312          -29.099268436034908          3347.3136226524043     
   277.88023496609310          278.42584273742824          -29.594934321913943          3425.3128421870761     
   280.54751637588964          278.42327239328131          -30.094561396807116          3505.1047548607189     
   283.23080147414498          278.42064568057395          -30.598055203304018          3586.7183786804208     
   285.93018628298984          278.41796221027937          -31.105318965104392          3670.1828175359647     
   288.64576740068776          278.41522160524443          -31.616253505029324          3755.5272519600294     
   291.37764200509190          278.41242350063510          -32.130757182922167          3842.7809294633103     
   294.12590785712246          278.40956754438781          -32.648725853126109          3931.9731544876181     
   296.89066330426522          278.40665339766446          -33.170052843547900          4023.1332780275898     
