 #              _____________________  _______________________             #
 #              ___  __ \__  __ \_  / / /_  /___  ____/_  ___/             #
 #              __  / / /_  /_/ /  / / /_  __/_  __/  _____ \              #
 #              _  /_/ /_  _, _// /_/ / / /_ _  /___  ____/ /              #
 #              /_____/ /_/ |_| \____/  \__/ /_____/  /____/               #
 #                                                                         #
  
 #        time                      T            heat flux [W.L-2]   in    x              directions   cumulative flux
 #-----------------------------------------------------------------------------------------------

   0.0000000000000000          278.38740000000001           6.9670086206604145          0.0000000000000000     
   1.0000000000000000          278.38739942252187           6.9671983286411123          0.0000000000000000     
   2.0060000000000002          278.38739887563548           6.9673728426952701          6.9673728426952701     
   3.0180360000000004          278.38739835698607           6.9675335872398145          13.976711631458524     
   4.0361442160000003          278.38739786440266           6.9676819481909584          21.028256599577908     
   5.0603610812960005          278.38739739588152           6.9678192898945044          28.122250666222790     
   6.0907232477837763          278.38739694957104           6.9679469682344823          35.258939467576681     
   7.1272675872704792          278.38739652375745           6.9680663407467325          42.438571398659036     
   8.1700311927941023          278.38739611685111           6.9681787741952652          49.661397663582527     
   9.2190513799508675          278.38739572737461           6.9682856493936667          56.927672331662784     
   10.274365688230573          278.38739535395115           6.9683883644868745          64.237652397957831     
   11.336011882359955          278.38739499529413           6.9684883361785674          71.591597846207307     
   12.404027953654115          278.38739465019722           6.9685869997377274          78.989771712938364     
   13.478452121376039          278.38739431752600           6.9686858077201412          86.432440151382991     
   14.559322834104295          278.38739399620943           6.9687862278468984          93.919872494269399     
   15.646678771108920          278.38739368523289           6.9688897399781586          101.45234131444423     
   16.740558843735574          278.38739338363155           6.9689978325056270          109.03012248259158     
   17.841002196797987          278.38739309048401           6.9691119984353245          116.65349522158330     
   18.948048209978776          278.38739280490745           6.9692337310143539          124.32274215681640     
   20.061736499238648          278.38739252605228           6.9693645191807683          132.03814936217910     
   21.182106918234080          278.38739225309837           6.9695058429277204          139.80000640137595     
   22.309199559743483          278.38739198525127           6.9696591685493976          147.60860636429899     
   23.443054757101944          278.38739172173837           6.9698259442061605          155.46424589861510     
   24.583713085644554          278.38739146180632           6.9700075952877203          163.36722523616004     
   25.731215364158420          278.38739120471871           6.9702055199263917          171.31784821411776     
   26.885602656343369          278.38739094975369           6.9704210850381578          179.31642229140016     
   28.046916272281429          278.38739069620152           6.9706556224915293          187.36325856020196     
   29.215197769915118          278.38739044336393           6.9709104250644289          195.45867175231385     
   30.390488956534607          278.38739019055197           6.9711867433080936          203.60298024106993     
   31.572831890273815          278.38738993708523           6.9714857824738514          211.79650603885452     
   32.762268881615455          278.38738968229092           6.9718086994290820          220.03957479000601     
   33.958842494905149          278.38738942550265           6.9721566003487805          228.33251575988766     
   35.162595549874581          278.38738916606019           6.9725305383675158          236.67566181995480     
   36.373571123173825          278.38738890330882           6.9729315117514235          245.06934942931818     
   37.591812549912866          278.38738863659916           6.9733604620674958          253.51391861269266     
   38.817363425212342          278.38738836528580           6.9738182729838130          262.00971293539129     
   40.050267605763615          278.38738808872824           6.9743057690264276          270.55707947522785     
   41.290569211398200          278.38738780629018           6.9748237147716523          279.15636879177799     
   42.538312626666588          278.38738751733894           6.9753728142504361          287.80793489319262     
   43.793542502426590          278.38738722124560           6.9759537106245428          296.51213520084150     
   45.056303757441150          278.38738691738519           6.9765669857153334          305.26933051155225     
   46.326641579985797          278.38738660513565           6.9772131603820196          314.07988495846035     
   47.604601429465710          278.38738628387819           6.9778926946560160          322.94416597013986     
   48.890229038042506          278.38738595299702           6.9786059880602425          331.86254422822094     
   50.183570412270761          278.38738561187876           6.9793533802217693          340.83539362384784     
   51.484671834744383          278.38738525991266           6.9801351514219565          349.86309121288684     
   52.793579865752847          278.38738489648989           6.9809515236808988          358.94601717056747     
   54.110341344947365          278.38738452100307           6.9818026615192093          368.08455474514625     
   55.435003393017048          278.38738413284614           6.9826886729621869          377.27909021091074     
   56.767613413375152          278.38738373141376           6.9836096108607268          386.53001282095266     
   58.108219093855404          278.38738331610045           6.9845654740495613          395.83771475951835     
   59.456868408418536          278.38738288630060           6.9855562085287746          405.20259109398609     
   60.813609618869044          278.38738244140706           6.9865817089690552          414.62503972692650     
   62.178491276582257          278.38738198081097           6.9876418199502490          424.10546134792042     
   63.551562224241749          278.38738150390083           6.9887363376505247          433.64425938577347     
   64.932871597587194          278.38738101006112           6.9898650111601386          443.24183996065904     
   66.322468827172713          278.38738049867231           6.9910275439574789          452.89861183644371     
   67.720403640135743          278.38737996910930           6.9922235955819660          462.61498637350695     
   69.126726061976555          278.38737942074039           6.9934527829852575          472.39137748165530     
   70.541486418348413          278.38737885292630           6.9947146823335267          482.22820157380011     
   71.964735336858510          278.38737826501909           6.9960088303061001          492.12587751974462     
   73.396523748879659          278.38737765636074           6.9973347259492860          502.08482660090505     
   74.836902891372944          278.38737702628225           6.9986918317910884          512.10547246497060     
   76.285924308721178          278.38737637410202           7.0000795758637411          522.18824108183787     
   77.743639854573502          278.38737569912479           7.0014973528861741          532.33356069967692     
   79.210101693700949          278.38737500064019           7.0029445258849057          542.54186180180079     
   80.685362303863158          278.38737427792148           7.0044204276568793          552.81357706416429     
   82.169474477686336          278.38737353022373           7.0059243623100267          563.14914131365606     
   83.662491324552448          278.38737275678307           7.0074556066452356          573.54899148700372     
   85.164466272499766          278.38737195681472           7.0090134116176692          584.01356659045950     
   86.675453070134765          278.38737112951145           7.0105970037702425          594.54330766027692     
   88.195505788555579          278.38737027404244           7.0122055865590536          605.13865772386998     
   89.724678823286908          278.38736938955191           7.0138383416575181          615.80006176167058     
   91.263026896226634          278.38736847515719           7.0154944303288040          626.52796666983727     
   92.810605057603993          278.38736752994720           7.0171729949587940          637.32282122411675     
   94.367468687949611          278.38736655298152           7.0188731598551346          648.18507604378624     
   95.933673500077305          278.38736554328875           7.0205940328055805          659.11518355688281     
   97.509275541077770          278.38736449986453           7.0223347063345960          670.11359796631541     
   99.094331194324241          278.38736342167073           7.0240942587055279          681.18077521651151     
   100.68889718149019          278.38736230763374           7.0258717553015479          692.31717296123691     
   102.29303056457913          278.38736115664307           7.0276662494388917          703.52325053174627     
   103.90678874796660          278.38735996755031           7.0294767837725161          714.79946890624444     
   105.53022948045439          278.38735873916710           7.0313023912720229          726.14629068003160     
   107.16341085733713          278.38735747026465           7.0331420963403897          737.56418003660519     
   108.80639132248115          278.38735615957199           7.0349949156742042          749.05360271934899     
   110.45922967041604          278.38735480577481           7.0368598595289988          760.61502600451126     
   112.12198504843853          278.38735340751447           7.0387359324161851          772.24891867459598     
   113.79471695872917          278.38735196338678           7.0406221342007340          783.95575099286248     
   115.47748526048154          278.38735047194086           7.0425174610861081          795.73599467880013     
   117.17035017204444          278.38734893167816           7.0444209064623067          807.59012288439658     
   118.87337227307670          278.38734734105145           7.0463314617747006          819.51861017127658     
   120.58661250671516          278.38734569846417           7.0482481173518829          831.52193248868593     
   122.31013218175545          278.38734400226929           7.0501698632997067          843.60056715247640     
   124.04399297484598          278.38734225076837           7.0520956903215737          855.75499282501244     
   125.78825693269505          278.38734044221121           7.0540245905524328          867.98568949606783     
   127.54298647429123          278.38733857479502           7.0559555580951496          880.29313846423804     
   129.30824439313696          278.38733664666387           7.0578875899994378          892.67782231967510     
   131.08409385949579          278.38733465590786           7.0598196869528813          905.14022492769175     
   132.87059842265276          278.38733260056296           7.0617508539386096          917.68083141321756     
   134.66782201318867          278.38733047861058           7.0636801008115739          930.30012814599854     
   136.47582894526781          278.38732828797686           7.0656064432109060          942.99860272717979     
   138.29468391893943          278.38732602653272           7.0675289029371458          955.77674397635974     
   140.12445202245306          278.38732369209350           7.0694465087862959          968.63504191997106     
   141.96519873458777          278.38732128241901           7.0713582968963031          981.57398778014840     
   143.81698992699529          278.38731879521305           7.0732633115557970          994.59407396495783     
   145.67989186655726          278.38731622812384           7.0751606056248608          1007.6957940593227     
   147.55397121775661          278.38731357874343           7.0770492410901662          1020.8796428169252     
   149.43929504506315          278.38731084460852           7.0789282896590846          1034.1461161531961     
   151.33593081533354          278.38730802320021           7.0807968331051976          1047.4957111389660     
   153.24394640022555          278.38730511194416           7.0826539638744306          1060.9289259952975     
   155.16341007862690          278.38730210821097           7.0844987854806405          1074.4462600891429     
   157.09439053909867          278.38729900931679           7.0863304128284490          1088.0482139297180     
   159.03695688233327          278.38729581252329           7.0881479728209253          1101.7352891661678     
   160.99117862362726          278.38729251503844           7.0899506047167193          1115.5079885860862     
   162.95712569536903          278.38728911401660           7.0917374604125296          1129.3668161147734     
   164.93486844954126          278.38728560655989           7.0935077047068384          1143.3122768152195     
   166.92447766023849          278.38728198971785           7.0952605160332896          1157.3448768897686     
   168.92602452619994          278.38727826048876           7.0969950862730062          1171.4651236816903     
   170.93958067335714          278.38727441582023           7.0987106213616737          1185.6735256782440     
   172.96521815739729          278.38727045260998           7.1004063415129659          1199.9705925145115     
   175.00300946634167          278.38726636770662           7.1020814814816884          1214.3568349781081     
   177.05302752313972          278.38726215791036           7.1037352906952407          1228.8327650145284     
   179.11534568827855          278.38725781997414           7.1053670337198822          1243.3988957338318     
   181.19003776240822          278.38725335060457           7.1069759902739431          1258.0557414177792     
   183.27717798898269          278.38724874646289           7.1085614554279726          1272.8038175278193     
   185.37684105691659          278.38724400416601           7.1101227397820495          1287.6436407139001     
   187.48910210325809          278.38723912028735           7.1116591698532758          1302.5757288245745     
   189.61403671587763          278.38723409135861           7.1131700877754351          1317.6006009169841     
   191.75172093617289          278.38722891386988           7.1146548519469475          1332.7187772687278     
   193.90223126178992          278.38722358427185           7.1161128366624053          1347.9307793895016     
   196.06564464936065          278.38721809897612           7.1175434325661131          1363.2371300342627     
   198.24203851725682          278.38721245435732           7.1189460464724723          1378.6383532165951     
   200.43149074836035          278.38720664675344           7.1203201016013482          1394.1349742231780     
   202.63407969285052          278.38720067246783           7.1216650375832495          1409.7275196288867     
   204.84988417100763          278.38719452777002           7.1229803105155218          1425.4165173126494     
   207.07898347603367          278.38718820889721           7.1242653929052988          1441.2024964738287     
   209.32145737688987          278.38718171205568           7.1255197737302307          1457.0859876494001     
   211.57738612115119          278.38717503342207           7.1267429584830593          1473.0675227319091     
   213.84685043787809          278.38716816914462           7.1279344690943676          1489.1476349879504     
   216.12993154050537          278.38716111534484           7.1290938438468485          1505.3268590771584     
   218.42671112974841          278.38715386811850           7.1302206375592139          1521.6057310723327     
   220.73727139652689          278.38714642353733           7.1313144213403596          1537.9847884797416     
   223.06169502490604          278.38713877765025           7.1323747825555257          1554.4645702600874     
   225.40006519505548          278.38713092648510           7.1334013246921506          1571.0456168499131     
   227.75246558622581          278.38712286604948           7.1343936674941704          1587.7284701840845     
   230.11898037974316          278.38711459233281           7.1353514465803869          1604.5136737181579     
   232.49969426202162          278.38710610130704           7.1362743136773226          1621.4017724520731     
   234.89469242759375          278.38709738892879           7.1371619362086847          1638.3933129536745     
   237.30406058215931          278.38708845114013           7.1380139973308152          1655.4888433831100     
   239.72788494565228          278.38707928387055           7.1388301957241671          1672.6889135175388     
   242.16625225532619          278.38706988303790           7.1396102455468844          1689.9940747765393     
   244.61924976885814          278.38706024455018           7.1403538761617362          1707.4048802476755     
   247.08696526747130          278.38705036430662           7.1410608321128040          1724.9218847128286     
   249.56948705907612          278.38704023819935           7.1417308728862707          1742.5456446747742     
   252.06690398143058          278.38702986211439           7.1423637727957727          1760.2767183843087     
   254.57930540531916          278.38701923193344           7.1429593207259590          1778.1156658675791     
   257.10678123775108          278.38700834353500           7.1435173200562190          1796.0630489540611     
   259.64942192517759          278.38699719279560           7.1440375883758964          1814.1194313046663     
   262.20731845672867          278.38698577559160           7.1445199574359419          1832.2853784405736     
   264.78056236746903          278.38697408780001           7.1449642726847422          1850.5614577717301     
   267.36924574167386          278.38696212530004           7.1453703933853410          1868.9482386264935     
   269.97346121612389          278.38694988397424           7.1457381922590253          1887.4462922812149     
   272.59330198342064          278.38693735970980           7.1460675552675532          1906.0561919901081     
   275.22886179532117          278.38692454840003           7.1463583813233793          1924.7785130152120     
   277.88023496609310          278.38691144594509           7.1466105823028387          1943.6138326572323     
   280.54751637588964          278.38689804825390           7.1468240826194185          1962.5627302861160     
   283.23080147414498          278.38688435124482           7.1469988190414346          1981.6257873719833     
   285.93018628298984          278.38687035084678           7.1471347404824899          2000.8035875163430     
   288.64576740068776          278.38685604300065           7.1472318078858939          2020.0967164838430     
   291.37764200509190          278.38684142366031           7.1472899938594638          2039.5057622338793     
   294.12590785712246          278.38682648879393           7.1473092823210944          2059.0313149520744     
   296.89066330426522          278.38681123438454           7.1472896686043006          2078.6739670828701     
