 #              _____________________  _______________________             #
 #              ___  __ \__  __ \_  / / /_  /___  ____/_  ___/             #
 #              __  / / /_  /_/ /  / / /_  __/_  __/  _____ \              #
 #              _  /_/ /_  _, _// /_/ / / /_ _  /___  ____/ /              #
 #              /_____/ /_/ |_| \____/  \__/ /_____/  /____/               #
 #                                                                         #
  
 #        time                      T            heat flux [W.L-2]   in    x              directions   cumulative flux
 #-----------------------------------------------------------------------------------------------

   0.0000000000000000          278.34070000000003          -4.9759858402176897          0.0000000000000000     
   1.0000000000000000          278.01852786222884          -104.55989436447037          0.0000000000000000     
   2.0060000000000002          277.72215234454768          -192.80292368037277          192.80292368037277     
   3.0180360000000004          277.44913958382773          -270.93321366134580          465.36173662368662     
   4.0361442160000003          277.19728465947031          -340.04679410863508          809.50133394621321     
   5.0603610812960005          276.96459152131683          -401.12199434532317          1217.8869320074923     
   6.0907232477837763          276.74925439437925          -455.03219382496121          1683.9385791756558     
   7.1272675872704792          276.54964060550151          -502.55712728544029          2201.7544296293549     
   8.1700311927941023          276.36427476663442          -544.39292596159976          2766.0418354914545     
   9.2190513799508675          276.19182424281911          -581.16104987634719          3372.0554272504082     
   10.274365688230573          276.03108582932316          -613.41624422416521          4015.5414505714416     
   11.336011882359955          275.88097356095221          -641.65363449391202          4692.6877120125428     
   12.404027953654115          275.74050757680948          -666.31505958464197          5400.0785591116710     
   13.478452121376039          275.60880396525874          -687.79472920135674          6134.6543836501342     
   14.559322834104295          275.48506551622040          -706.44428084304957          6893.6751921368414     
   15.646678771108920          275.36857331092307          -722.57730236166617          7674.6878359417560     
   16.740558843735574          275.25867908264314          -736.47337809267196          8475.4965360566748     
   17.841002196797987          275.15479828561860          -748.38170970726151          9294.1363750237124     
   18.948048209978776          275.05640381311161          -758.52435702268383          10128.849461845266     
   20.061736499238648          274.96302030940836          -767.09913888355095          10978.063505260716     
   21.182106918234080          274.87421902432260          -774.28222976514417          11840.372557132179     
   22.309199559743483          274.78961316245898          -780.23048384745243          12714.519711233357     
   23.443054757101944          274.70885368304852          -785.08351488698213          13599.381563832814     
   24.583713085644554          274.63162550957412          -788.96555719697460          14493.954261397417     
   25.731215364158420          274.55764411163926          -791.98713038222832          15397.340977766469     
   26.885602656343369          274.48665242458389          -794.24652811223882          16308.740678476992     
   28.046916272281429          274.41841807521865          -795.83114911878931          17227.438043744667     
   29.215197769915118          274.35273088473173          -796.81868673157271          18152.794434079926     
   30.390488956534607          274.28940062231652          -797.27819159807132          19084.239793790799     
   31.572831890273815          274.22825498539066          -797.27102073905485          20021.265397812535     
   32.762268881615455          274.16913778442142          -796.85168475393471          20963.417356519531     
   33.958842494905149          274.11190731235564          -796.06860378992542          21910.290801512961     
   35.162595549874581          274.05643488047787          -794.96478181182795          22861.524682923591     
   36.373571123173825          274.00260350419961          -793.57840773917860          23816.797115597405     
   37.591812549912866          273.95030672382234          -791.94339114835725          24775.821217713838     
   38.817363425212342          273.89944754672666          -790.08983945143370          25738.341390979174     
   40.050267605763615          273.84993749873098          -788.04448275852610          26704.129996598811     
   41.290569211398200          273.80169577354025          -785.83105199475494          27672.984385810149     
   42.538312626666588          273.75464847027803          -783.47061526998004          28644.724247897018     
   43.793542502426590          273.70872791007275          -780.98187698506899          29619.189242349086     
   45.056303757441150          273.66387202355912          -778.38144369276279          30596.236885209441     
   46.326641579985797          273.62002380196043          -775.68406031493112          31575.740662707511     
   47.604601429465710          273.57713080515219          -772.90281994054135          32557.588348029396     
   48.890229038042506          273.53514472076944          -770.04935009106350          33541.680499563881     
   50.183570412270761          273.49402096902105          -767.13397803553630          34527.929121203713     
   51.484671834744383          273.45371834841887          -764.16587746337495          35516.256467300533     
   52.793579865752847          273.41419871811888          -761.15319857805684          36506.593976690790     
   54.110341344947365          273.37542671301497          -758.10318345348685          37498.881321846144     
   55.435003393017048          273.33736948812589          -755.02226829683298          38493.065560673480     
   56.767613413375152          273.29999648917573          -751.91617408373554          39489.100379811964     
   58.108219093855404          273.26327924659256          -748.78998687281910          40486.945419462492     
   59.456868408418536          273.22719119044069          -745.64822896357930          41486.565670851109     
   60.813609618869044          273.19170748406464          -742.49492193399431          42487.930938383994     
   62.178491276582257          273.15680487445866          -739.33364247965687          43491.015359408630     
   63.551562224241749          273.12246155758618          -1974.5901176134075          46186.097192440946     
   64.932871597587194          273.08865705706216          -2871.7315575077932          50129.188363531845     
   66.322468827172713          273.05537211478332          -4214.9378226566751          55951.321486035777     
   67.720403640135743          273.02258859224116          -5673.0968669373797          63834.641175502271     
   69.126726061976555          272.99028938138957          -6497.5177312980377          72917.747409928415     
   70.541486418348413          272.95845832406053          -6037.8002460586467          81408.841274556675     
   71.964735336858510          272.92708013902950          -4600.4741754269044          87917.409758463182     
   73.396523748879659          272.89614035593047          -3095.9614299330915          92323.733515364409     
   74.836902891372944          272.86562525530610          -2031.1726561580272          95231.942987265691     
   76.285924308721178          272.85105112690758          -1676.6107356939522          97646.898121039572     
   77.743639854573502          272.83854288984628          -1441.2817329704171          99735.346220546489     
   79.210101693700949          272.82780831263489          -1280.4488276840980          101601.87638232998     
   80.685362303863158          272.81842836535048          -1165.1306070120554          103310.49595511255     
   82.169474477686336          272.81023628314080          -1080.3027489600076          104904.22404770320     
   83.662491324552448          272.80301354210189          -1015.8187749757751          106411.81305804290     
   85.164466272499766          272.79659186207209          -966.10013525269267          107854.21683573480     
   86.675453070134765          272.79084454691093          -925.66189087360590          109244.53780609650     
   88.195505788555579          272.78565658380614          -892.56411475417974          110593.19039953283     
   89.724678823286908          272.78093649090835          -864.95405571297613          111907.96616322844     
   91.263026896226634          272.77661071246524          -841.53904513604482          113194.82497872403     
   92.810605057603993          272.77261939605251          -821.39311172382440          114458.41348927034     
   94.367468687949611          272.76891323288368          -803.83691610510073          115702.41394594352     
   95.933673500077305          272.76545109056588          -788.36115576410020          116929.78475692989     
   97.509275541077770          272.76219822976338          -774.57644544699713          118142.93011314975     
   99.094331194324241          272.75912495038409          -762.17974363983024          119343.82207283788     
   100.68889718149019          272.75620571731559          -750.93218910811413          120534.09138438845     
   102.29303056457913          272.75341785844552          -740.64048505676328          121715.09151057804     
   103.90678874796660          272.75074145397764          -731.14823097954695          122887.95079587876     
   105.53022948045439          272.74815866777021          -722.32672583552437          124053.61146077531     
   107.16341085733713          272.74565335692239          -714.06894460546414          125212.86007125239     
   108.80639132248115          272.74321075943732          -706.28507105853225          126366.35169607548     
   110.45922967041604          272.74081724248657          -698.89914765514970          127514.62934277870     
   112.12198504843853          272.73846009813224          -691.84653879579400          128658.13983298642     
   113.79471695872917          272.73612737651592          -685.07199368394538          129797.24697481700     
   115.47748526048154          272.73380774885550          -678.52815597812707          130932.24267335227     
   117.17035017204444          272.73149039429723          -672.17440914146391          132063.35646230465     
   118.87337227307670          272.72916490594059          -665.97597540482650          133190.76382301137     
   120.58661250671516          272.72682121228428          -659.90320666977220          134314.59356851206     
   122.31013218175545          272.72444951102869          -653.93102025954738          135434.93450244496     
   124.04399297484598          272.72204021266884          -648.03844300595267          136551.84150914819     
   125.78825693269505          272.71958389166639          -642.20823500764197          137665.34118882782     
   127.54298647429123          272.71707124324121          -636.42657037152833          138775.43711734438     
   129.30824439313696          272.71449304398982          -630.68275695925297          139882.11478235610     
   131.08409385949579          272.71184011465419          -624.96898102753937          140985.34622514792     
   132.87059842265276          272.70910328343138          -619.28006594003648          142085.09439977419     
   134.66782201318867          272.70627334827213          -613.61323704715801          143181.31724777244     
   136.47582894526781          272.70334103664925          -607.96788745138360          144273.97147738835     
   138.29468391893943          272.70029696132394          -602.34534176801355          145363.01603081048     
   140.12445202245306          272.69713157068799          -596.82906582857174          146448.56154562457     
   141.96519873458777          272.69383509232853          -591.25768480185059          147530.42599823233     
   143.81698992699529          272.69040077592780          -585.72695297716837          148608.60096113375     
   145.67989186655726          272.68681528825948          -580.23885032337682          149683.08215365524     
   147.55397121775661          272.68306782891761          -574.80079196340364          150753.87966386563     
   149.43929504506315          272.67914706905299          -569.42073263740804          151821.01930104621     
   151.33593081533354          272.67504104569235          -564.10697464130942          152884.54362148728     
   153.24394640022555          272.67073704362070          -558.86799946038911          153944.51266012329     
   155.16341007862690          272.66622146431956          -553.71232671837026          155001.00440904876     
   157.09439053909867          272.66147968156292          -548.64840301977290          156054.11509085813     
   159.03695688233327          272.65649588335805          -543.68452207371638          157103.95927964340     
   160.99117862362726          272.65125289998991          -538.82877624824289          158150.66992514953     
   162.95712569536903          272.64573201798441          -534.08903850343927          159194.39833597976     
   164.93486844954126          272.63991277986560          -529.47297257084517          160235.31417597181     
   166.92447766023849          272.63377276965616          -524.98806833440267          161273.60552414705     
   168.92602452619994          272.62728738419128          -520.64169866471082          162309.47904328341     
   170.93958067335714          272.62042959050484          -516.44119346659750          163343.16029551986     
   172.96521815739729          272.61316966986374          -512.39392641699703          164374.89423582281     
   175.00300946634167          272.60547494949702          -508.50740976568517          165404.94590595635     
   177.05302752313972          272.59731526012638          -504.80027490544802          166433.62351891142     
   179.11534568827855          272.58864597997916          -501.25779107271455          167461.21104172120     
   181.19003776240822          272.57942396622309          -497.90021637059453          168488.03970236884     
   183.27717798898269          272.56960201288376          -494.73656543537703          169514.46573345974     
   185.37684105691659          272.55912858602790          -491.77642148447399          170540.87208522082     
   187.48910210325809          272.54794758405700          -489.02998322063161          171567.67028010151     
   189.61403671587763          272.53599813886194          -486.50808891510917          172595.30236504693     
   191.75172093617289          272.52321447861863          -484.22221306043571          173624.24290577829     
   193.90223126178992          272.50952587933330          -482.18443031133347          174655.00095372688     
   196.06564464936065          272.49486280538605          -480.40790256776501          175688.12310870687     
   198.24203851725682          272.47913950559564          -478.90314677521451          176724.18858779012     
   200.43149074836035          272.46227165786127          -477.68517312940105          177763.81966937386     
   202.63407969285052          272.44417159596424          -476.76716545798342          178807.67860350275     
   204.84988417100763          272.42474946969054          -476.16192762551304          179856.46760107783     
   207.07898347603367          272.40391486509753          -475.88144151391958          180910.92783025623     
   209.32145737688987          272.38158466478046          -475.93497873954107          181971.83416060213     
   211.57738612115119          272.35766914620331          -476.33239086608154          183039.99711525175     
   213.84685043787809          272.33209181115029          -477.07928118249316          184116.25397896286     
   216.12993154050537          272.31216553368262          -478.36598299555760          185201.88850770728     
   218.42671112974841          272.29429305417608          -479.53597667696653          186296.70803408837     
   220.73727139652689          272.27907910372960          -480.50045515338894          187400.31167210665     
   223.06169502490604          272.26627812022480          -481.27005854552493          188512.31514697211     
   225.40006519505548          272.25600249806814          -481.84172524256172          189632.31943826491     
   227.75246558622581          272.24791651750832          -482.26685297454986          190760.03786131245     
   230.11898037974316          272.24163925215123          -482.60221952102177          191895.31151129337     
   232.49969426202162          272.23681906681355          -482.89763796330584          193038.09591528811     
   234.89469242759375          272.23316018320173          -483.19228241822339          194188.43848985099     
   237.30406058215931          272.23042429378165          -483.51528905165577          195346.45672015578     
   239.72788494565228          272.22842275633695          -483.88772445149897          196512.32039383441     
   242.16625225532619          272.22700684419033          -484.32461464395186          197686.23819464777     
   244.61924976885814          272.22605889490694          -484.83661127616142          198868.44793811665     
   247.08696526747130          272.22548511093936          -485.43123987380051          200059.20956251782     
   249.56948705907612          272.22520997243197          -486.11379444587362          201258.80010716154     
   252.06690398143058          272.22517198726410          -486.88796354750463          202467.51008673833     
   254.57930540531916          272.22532047993315          -487.75626183630504          203685.64082903267     
   257.10678123775108          272.22561413650470          -488.72046029749055          204913.50280936755     
   259.64942192517759          272.22601612843550          -489.78138062684116          206151.41341207703     
   262.20731845672867          272.22649587109635          -490.93941516866732          207399.69594414625     
   264.78056236746903          272.22702683017854          -492.19447920302332          208658.67849534826     
   267.36924574167386          272.22758568044276          -493.54605513689364          209928.69287639920     
   269.97346121612389          272.22815164713569          -494.99321176517350          211210.07357403994     
   272.59330198342064          272.22870598620966          -496.53460554543614          212503.15667740130     
   275.22886179532117          272.22923157093823          -498.16846895702440          213808.27874135671     
   277.88023496609310          272.22971256086373          -499.89258978730129          215125.77556126699     
   280.54751637588964          272.23013413511495          -501.70428440732928          216455.98084060592     
   283.23080147414498          272.23048227662218          -503.60036763091500          217799.22473915457     
   285.93018628298984          272.23074359708176          -505.57712150393587          219155.83229530492     
   288.64576740068776          272.23090519499863          -507.63026527523567          220526.12172189879     
   291.37764200509190          272.23095454099081          -509.75492880740677          221910.40258122163     
   294.12590785712246          272.23087938593000          -511.94563175541560          223308.97385144987     
   296.89066330426522          272.23066768853431          -514.19627093538043          224722.12190410303     
