 #              _____________________  _______________________             #
 #              ___  __ \__  __ \_  / / /_  /___  ____/_  ___/             #
 #              __  / / /_  /_/ /  / / /_  __/_  __/  _____ \              #
 #              _  /_/ /_  _, _// /_/ / / /_ _  /___  ____/ /              #
 #              /_____/ /_/ |_| \____/  \__/ /_____/  /____/               #
 #                                                                         #
  
 #        time                      T            heat flux [W.L-2]   in    x              directions   cumulative flux
 #-----------------------------------------------------------------------------------------------

   0.0000000000000000        5.4707999999999997       0.83978313309574926       0.83978313309574926     
   1.0000000000000000        5.4701489819243445        1.0097796551931792        1.8495627882889285     
   1.9540000000000002        5.4695614078592163        1.1586998141508489        3.0082626024397774     
   2.8641160000000001        5.4690289838208113        1.2897501319648592        4.2980127344046366     
   3.8288389600000006        5.4684936515206397        1.4174080296902691        5.7154207640949055     
   4.8514452976000007        5.4679560669859502        1.5412852598336886        7.2567060239285937     
   5.9354080154560007        5.4674168297888803        1.6610263668066991        8.9177323907352921     
   7.0844084963833609        5.4668764701943520        1.7763147954294380        10.694047186164731     
   8.3023490061663630        5.4663354372507511        1.8868784541874783        12.580925640352209     
   9.5933659465363448        5.4657940882632197        1.9924945299120547        14.573420170264264     
   10.961843903328527        5.4652526800787564        2.0929933611213403        16.666413531385604     
   12.412430537528239        5.4647113625795720        2.1882611984970950        18.854674729882699     
   13.950052369779934        5.4641701747251528        2.2782417130642361        21.132916442946936     
   15.579931511966731        5.4636290434046364        2.3629361548926093        23.495852597839544     
   17.307603402684734        5.4630877852616182        2.4424021160562495        25.938254713895795     
   19.138935606845820        5.4625461115372742        2.5167509087277953        28.455005622623588     
   21.080147743256571        5.4620036358504933        2.5861436294831579        31.041149252106745     
   23.137832607851966        5.4614598847027302        2.6507860403777324        33.691935292484480     
   25.318978564323086        5.4609143103688096        2.7109224519273023        36.402857744411783     
   27.630993278182473        5.4603663057213847        2.7668288388472182        39.169686583259001     
   30.081728874873424        5.4598152204445061        2.8188054525311004        41.988492035790102     
   32.679508607365833        5.4592603780276239        2.8671692121480712        44.855661247938173     
   35.433155123807786        5.4587010929002462        2.9122461572843394        47.767907405222509     
   38.352020431236255        5.4581366870719004        2.9543642292057566        50.722271634428267     
   41.446017657110431        5.4575665056812328        2.9938466164689466        53.716118250897210     
   44.725654716537058        5.4569899309287511        3.0310058565486253        56.747124107445835     
   48.202069999529286        5.4564063939635563        3.0661388324070842        59.813262939852919     
   51.887070199501046        5.4558153844076962        3.0995227459471657        62.912785685800088     
   55.793170411471110        5.4552164573232504        3.1314120939338230        66.044197779733906     
   59.933636636159378        5.4546092375479907        3.1620366205007908        69.206234400234692     
   63.444751994695032        5.4541124846822173        3.1860826702982519        72.392317070532940     
   67.166534274742830        5.4536046133369620        3.2097488572946271        75.602065927827567     
   70.888316554790620        5.4531139451931274        3.2318606713076155        78.833926599135182     
   74.833405771641281        5.4526116466700305        3.2538049150161181        82.087731514151301     
   78.778494988491943        5.4521258374142816        3.2744558320293975        85.362187346180704     
   82.723584205342604        5.4516553595710535        3.2939750482359997        88.656162394416697     
   86.668673422193265        5.4511991892671299        3.3124938062614420        91.968656200678140     
   90.613762639043927        5.4507564141687403        3.3301197073585644        95.298775908036703     
   94.558851855894588        5.4503262157189099        3.3469418239476338        98.645717731984334     
   98.503941072745249        5.4499078549525777        3.3630345999667322        102.00875233195107     
   102.44903028959591        5.4495006610667547        3.3784608445399456        105.38721317649102     
   106.39411950644657        5.4491040221278313        3.3932740437839941        108.78048722027501     
   110.33920872329723        5.4487173774491060        3.4075201570203677        112.18800737729538     
   114.52100329315893        5.4483181521940365        3.4220309506227244        115.61003832791810     
   118.70279786302062        5.4479289830253981        3.4359925438781977        119.04603087179630     
   122.88459243288231        5.4475493515854172        3.4494407460595689        122.49547161785587     
   127.06638700274401        5.4471787783206604        3.4624071781113912        125.95787879596726     
   131.24818157260572        5.4468168183604160        3.4749199773966049        129.43279877336386     
   135.68088381665910        5.4464423279698417        3.4877037013182579        132.92050247468211     
   140.11358606071249        5.4460765691086754        3.5000343782440622        136.42053685292618     
   144.81225043940910        5.4456981725282967        3.5126245286053885        139.93316138153156     
   149.79283468082750        5.4453069763381077        3.5254610746401651        143.45862245617172     
   155.07225397673099        5.4449028275393685        3.5385288533780797        146.99715130954979     
   160.66843843038870        5.4444855807960559        3.5518105381109142        150.54896184766071     
   166.60039395126589        5.4440550968537300        3.5652865784243111        154.11424842608503     
   172.88826680339571        5.4436112405903909        3.5789351616287508        157.69318358771378     
   179.55341202665332        5.4431538786874656        3.5927321981674707        161.28591578588126     
   186.61846596330636        5.4426828769132873        3.6066513332346419        164.89256711911591     
   194.10742313615862        5.4421980970157238        3.6206639862947143        168.51323110541063     
   202.04571773938198        5.4416993932244546        3.6347394195774063        172.14797052498804     
   210.46031001879876        5.4411866083668237        3.6488448357999324        175.79681536078797     
   218.87490229821555        5.4406885791428516        3.6621898527326966        179.45900521352067     
   227.28949457763233        5.4402043177561161        3.6748238482325926        183.13382906175326     
   235.70408685704911        5.4397329232491902        3.6867919997465437        186.82062106149979     
   244.11867913646589        5.4392735720571190        3.6981357577098781        190.51875681920967     
   252.53327141588267        5.4388255097812417        3.7088932461458750        194.22765006535553     
   260.94786369529942        5.4383880439991934        3.7190996050695806        197.94674967042511     
   269.36245597471617        5.4379605379592073        3.7287872857766060        201.67553695620171     
   277.77704825413292        5.4375424050325982        3.7379863075561355        205.41352326375784     
   286.19164053354967        5.4371331038190451        3.7467244824603267        209.16024774621818     
   294.60623281296643        5.4367321338160908        3.7550276133506379        212.91527535956882     
   303.02082509238318        5.4363390315780062        3.7629196693923568        216.67819502896117     
   311.43541737179993        5.4359533673004909        3.7704229423362059        220.44861797129738     
   319.85000965121668        5.4355747417770610        3.7775581863083811        224.22617615760575     
   328.26460193063343        5.4352027836807348        3.7843447433537420        228.01052090095948     
   337.18406974681523        5.4348155893250611        3.7911681137350546        231.80168901469455     
   346.10353756299702        5.4344350949784586        3.7976410116030013        235.59933002629754     
   355.02300537917881        5.4340609459243998        3.8037819698139184        239.40311199611145     
   363.94247319536061        5.4336928116408778        3.8096082568406051        243.21272025295207     
   372.86194101154240        5.4333303837319642        3.8151359768573903        247.02785622980946     
   382.31657689669510        5.4329522799878696        3.8206777217095018        250.84853395151896     
   392.33849093495695        5.4325579321512070        3.8262147533623838        254.67474870488135     
   402.96171981551453        5.4321467450695273        3.8317267583867629        258.50647546326809     
   414.22234242890556        5.4317180932008684        3.8371918135787189        262.34366727684682     
   426.15860239910006        5.4312713166456046        3.8425863510625851        266.18625362790942     
   438.81103796750619        5.4308057166667574        3.8478851210166982        270.03413874892613     
   451.46347353591233        5.4303475937979044        3.8527902850064693        273.88692903393257     
   464.11590910431846        5.4298964814829622        3.8573255195643457        277.74425455349694     
   476.76834467272460        5.4294519488231900        3.8615125533166679        281.60576710681363     
   489.42078024113073        5.4290135971780895        3.8653713540657453        285.47113846087939     
   502.83236194364127        5.4285554513575205        3.8691146617902512        289.34025312266965     
   516.24394364615182        5.4281034075852208        3.8725309273889681        293.21278405005864     
   529.65552534866231        5.4276570910510973        3.8756385038057606        297.08842255386440     
   543.06710705117280        5.4272161542379482        3.8784542752429454        300.96687682910738     
   556.47868875368329        5.4267802744565294        3.8809937975667528        304.84787062667414     
   569.89027045619378        5.4263491516481910        3.8832714237025328        308.73114205037666     
   584.10654706085495        5.4258971749909213        3.8854071657687483        312.61654921614542     
   599.17580026179576        5.4254233478846903        3.8873752583238805        316.50392447446927     
   615.14920865479303        5.4249266095011537        3.8891477838856972        320.39307225835495     
   632.08102155137010        5.4244058281135397        3.8906945403435325        324.28376679869848     
   649.01283444794717        5.4238904035397217        3.8919277101687038        328.17569450886720     
   665.94464734452424        5.4233799625827022        3.8928642441357533        332.06855875300295     
   682.87646024110131        5.4228741603636337        3.8935196681014048        335.96207842110437     
   700.82418191147303        5.4223428435730430        3.8939154377052265        339.85599385880960     
   719.84876688206714        5.4217846644686158        3.8940172873403864        343.75001114614997     
   740.01482695089680        5.4211981791569599        3.8937880001125631        347.64379914626255     
   760.18088701972647        5.4206164630380957        3.8932392720878677        351.53703841835039     
   780.34694708855613        5.4200391337734271        3.8923872047437404        355.42942562309412     
   800.51300715738580        5.4194658385791721        3.8912463369435737        359.32067196003771     
   820.67906722621547        5.4188962511277889        3.8898297656988530        363.21050172573655     
   840.84512729504513        5.4183300687559832        3.8881492482964464        367.09865097403298     
   861.01118736387480        5.4177670099394453        3.8862152888655950        370.98486626289855     
   871.33621011911555        5.4174795062294105        3.8851599901465126        374.87002625304507     
   882.28073423967078        5.4171755896527864        3.8839696920392148        378.75399594508428     
   893.22525836022601        5.4168724701978643        3.8827090919434619        382.63670503702775     
   904.82645392801453        5.4165520130906977        3.8812953867126394        386.51800042374038     
   917.12372122987040        5.4162132302251722        3.8797114800359362        390.39771190377633     
   930.15882456983763        5.4158550730005919        3.8779384093035074        394.27565031307984     
   943.97603411020293        5.4154764274626386        3.8759551153464740        398.15160542842631     
   958.62227622299008        5.4150761088287567        3.8737381718798711        402.02534360030620     
   974.14729286254453        5.4146528552813935        3.8712614646741996        405.89660506498041     
   990.60381050047226        5.4142053208830756        3.8684958077639418        409.76510087274437     
   1008.0477191966756        5.4137320674291480        3.8654084805852342        413.63050935332961     
   1026.5382624146512        5.4132315550045194        3.8619626656885226        417.49247201901812     
   1046.1382382257052        5.4127021309467898        3.8581167614708942        421.35058878048903     
   1066.9142125854225        5.4121420168356709        3.8538235380705994        425.20441231855960     
   1087.6901869451399        5.4115828006076212        3.8493135547752328        429.05372587333483     
   1109.7127197664402        5.4109908332734307        3.8442881383254974        432.89801401166034     
   1131.7352525877404        5.4103994640488891        3.8390156008129277        436.73702961247324     
   1153.7577854090407        5.4098084913454407        3.8334926970362257        440.57052230950944     
   1175.7803182303410        5.4092177147874301        3.8277152711272819        444.39823758063670     
   1197.8028510516413        5.4086269343594511        3.8216783051042120        448.21991588574093     
   1219.8253838729415        5.4080359496515262        3.8153759685172202        452.03529185425816     
   1241.8479166942418        5.4074445591964668        3.8088016691179130        455.84409352337610     
   1265.1918014848202        5.4068169873672662        3.8015185898263621        459.64561211320245     
   1289.9363193628333        5.4061506852215881        3.7934339060130737        463.43904601921554     
   1314.6808372408464        5.4054830110589194        3.7849722169806825        467.22401823619623     
   1340.9100261915403        5.4047733762239272        3.7755634144100019        470.99958165060622     
   1368.7129664792758        5.4040185926762181        3.7650763681458472        474.76465801875207     
   1396.5159067670113        5.4032607940653845        3.7540546208881826        478.51871263964023     
   1425.9870234720111        5.4024535988618290        3.7417447512117290        482.26045739085197     
   1457.2264071793106        5.4015928986317636        3.7279599867426954        485.98841737759466     
   1488.4657908866102        5.4007264514929538        3.7134061798004665        489.70182355739513     
   1519.7051745939098        5.3998535698377488        3.6980501287724983        493.39987368616761     
   1550.9445583012093        5.3989735528291121        3.6818584276939945        497.08173211386162     
   1582.1839420085089        5.3980856874012444        3.6647977078028631        500.74652982166447     
   1613.4233257158085        5.3971892494402187        3.6468348630626108        504.39336468472709     
   1644.6627094231080        5.3962835051110600        3.6279372590401282        508.02130194376724     
   1675.9020931304076        5.3953677123002111        3.6080729247278294        511.62937486849506     
   1709.0158398601452        5.3943847891779502        3.5858935023112570        515.21526837080637     
   1744.1164113936670        5.3933281316922983        3.5610788052521229        518.77634717605849     
   1781.3230172192002        5.3921902107984945        3.5332612948605577        522.30960847091910     
   1820.7620193942655        5.3909624151610718        3.5020196512153747        525.81162812213449     
   1862.5673616998347        5.3896348675565404        3.4668717881702946        529.27849991030484     
   1904.3727040054039        5.3882794317835749        3.4296374613624940        532.70813737166736     
   1946.1780463109731        5.3868943215277731        3.3902671187692830        536.09840449043668     
   1987.9833886165422        5.3854777742998436        3.3487165710489406        539.44712106148563     
   2029.7887309221114        5.3840280572738148        3.3049471002435835        542.75206816172920     
   2071.5940732276804        5.3825434727577957        3.2589255235564552        546.01099368528560     
   2113.3994155332493        5.3810223631906533        3.2106241812820038        549.22161786656761     
   2155.2047578388183        5.3794631156884050        3.1600208882252638        552.38163875479290     
   2197.0101001443873        5.3778641661566144        3.1070988547316274        555.48873760952449     
   2232.4610304195098        5.3764787802080418        3.0605460947454390        558.54928370426990     
   2270.0390165111398        5.3749760830035829        3.0093127176651153        561.55859642193502     
   2307.6170026027698        5.3734381672632257        2.9561896328236181        564.51478605475859     
   2347.4496678598975        5.3717672271504213        2.8977571649403577        567.41254321969893     
   2389.6722930324531        5.3699489062663561        2.8334408343579125        570.24598405405686     
   2431.8949182050087        5.3680821892336823        2.7667576246107242        573.01274167866757     
   2474.1175433775643        5.3661658719218703        2.6977228538733917        575.71046453254098     
   2518.8735260604731        5.3640774970715883        2.6219270998123445        578.33239163235328     
   2563.6295087433818        5.3619307834535954        2.5435406050773994        580.87593223743067     
   2608.3854914262906        5.3597245587545812        2.4625960607382607        583.33852829816897     
   2653.1414741091994        5.3574577382080308        2.3791301964350340        585.71765849460405     
   2700.5828157530827        5.3549856400556193        2.2878716260769929        588.00553012068110     
   2748.0241573969661        5.3524431990231882        2.1938808910411010        590.19941101172219     
   2798.3119795394823        5.3496680300656951        2.0912485168368948        592.29065952855910     
   2851.6170710105494        5.3466350622786649        1.9791705153014609        594.26983004386057     
   2908.1204679698808        5.3433163215139912        1.8567810109645970        596.12661105482516     
   2964.6238649292122        5.3398927615026395        1.7309173739326333        597.85752842875775     
   3009.8265824966775        5.3370863872608396        1.6280637145861292        599.48559214334387     
   3057.7414631181905        5.3340353204034709        1.5166791041946892        601.00227124753860     
   3105.6563437397035        5.3309076015585362        1.4030093036682978        602.40528055120694     
   3153.5712243612165        5.3277029786981025        1.2871298244758043        603.69241037568270     
