 #              _____________________  _______________________             #
 #              ___  __ \__  __ \_  / / /_  /___  ____/_  ___/             #
 #              __  / / /_  /_/ /  / / /_  __/_  __/  _____ \              #
 #              _  /_/ /_  _, _// /_/ / / /_ _  /___  ____/ /              #
 #              /_____/ /_/ |_| \____/  \__/ /_____/  /____/               #
 #                                                                         #
  
 #        time                      T            heat flux [W.L-2]   in    x              directions   cumulative flux
 #-----------------------------------------------------------------------------------------------

   0.0000000000000000        5.2374000000000001        5.8624924507141420        5.8624924507141420     
   1.0000000000000000        5.2373994132833506        5.8626485954665597        11.725141046180703     
   1.9540000000000002        5.2373988843146737        5.8627854469789717        17.587926493159674     
   2.8641160000000001        5.2373984054981282        5.8629060106940694        23.450832503853743     
   3.8288389600000006        5.2373979246055029        5.8630237401009566        29.313856243954699     
   4.8514452976000007        5.2373974422600131        5.8631385359502444        35.176994779904945     
   5.9354080154560007        5.2373969590215044        5.8632504879753604        41.040245267880309     
   7.0844084963833609        5.2373964753659790        5.8633599461797559        46.903605214060065     
   8.3023490061663630        5.2373959916618515        5.8634676090554336        52.767072823115498     
   9.5933659465363448        5.2373955081419563        5.8635746307435106        58.630647453859012     
   10.961843903328527        5.2373950248700112        5.8636827487892980        64.494330202648314     
   12.412430537528239        5.2373945416999295        5.8637944334828873        70.358124636131208     
   13.950052369779934        5.2373940582260659        5.8639130588409243        76.222037694972130     
   15.579931511966731        5.2373935737221746        5.8640430940261927        82.086080788998316     
   17.307603402684734        5.2373930870666161        5.8641903123986383        87.950271101396950     
   19.138935606845820        5.2373925966512500        5.8643620134744525        93.814633114871398     
   21.080147743256571        5.2373921002714408        5.8645672508979789        99.679200365769375     
   23.137832607851966        5.2373915949947945        5.8648170571780005        105.54401742294738     
   25.318978564323086        5.2373910770065946        5.8651246535492678        111.40914207649665     
   27.630993278182473        5.2373905414303987        5.8655056310668643        117.27464770756352     
   30.081728874873424        5.2373899821228846        5.8659780870927065        123.14062579465622     
   32.679508607365833        5.2373893914425143        5.8665626999479574        129.00718849460418     
   35.433155123807786        5.2373887599919140        5.8672827238305265        134.87447121843471     
   38.352020431236255        5.2373880763335308        5.8681638863678813        140.74263510480259     
   41.446017657110431        5.2373873266769824        5.8692341724485386        146.61186927725112     
   44.725654716537058        5.2373864945339124        5.8705234803802444        152.48239275763137     
   48.202069999529286        5.2373855603317976        5.8720631398594083        158.35445589749079     
   51.887070199501046        5.2373845009714595        5.8738852856633095        164.22834118315410     
   55.793170411471110        5.2373832893037484        5.8760220861526378        170.10436326930673     
   59.933636636159378        5.2373818934887266        5.8785048314802593        175.98286810078699     
   63.444751994695032        5.2373806231694999        5.8807576218271578        181.86362572261413     
   67.166534274742830        5.2373791720988532        5.8832991705637205        187.74692489317786     
   70.888316554790620        5.2373776098061038        5.8859814674078077        193.63290636058568     
   74.833405771641281        5.2373758212329964        5.8889669572110641        199.52187331779675     
   78.778494988491943        5.2373738927716174        5.8920785524699761        205.41395187026671     
   82.723584205342604        5.2373718171628205        5.8953001136081289        211.30925198387484     
   86.668673422193265        5.2373695871158237        5.8986157272181492        217.20786771109300     
   90.613762639043927        5.2373671952134195        5.9020098755771260        223.10987758667014     
   94.558851855894588        5.2373646338390953        5.9054675668128835        229.01534515348303     
   98.503941072745249        5.2373618951244554        5.9089744320926556        234.92431958557569     
   102.44903028959591        5.2373589709150750        5.9125167954322428        240.83683638100794     
   106.39411950644657        5.2373558527527386        5.9160817209630103        246.75291810197095     
   110.33920872329723        5.2373525318719611        5.9196570417944878        252.67257514376544     
   114.52100329315893        5.2373487731485726        5.9234450596199695        258.59602020338542     
   118.70279786302062        5.2373447646711675        5.9272187425340075        264.52323894591945     
   122.88459243288231        5.2373404949642968        5.9309665558782552        270.45420550179767     
   127.06638700274401        5.2373359522876761        5.9346779212876148        276.38888342308530     
   131.24818157260572        5.2373311246888097        5.9383431874264270        282.32722661051173     
   135.68088381665910        5.2373256728679793        5.9421662009393890        288.26939281145110     
   140.11358606071249        5.2373198719412093        5.9459177455682486        294.21531055701934     
   144.81225043940910        5.2373133133510752        5.9498042811068590        300.16511483812621     
   149.79283468082750        5.2373058804396901        5.9538126083513712        306.11892744647758     
   155.07225397673099        5.2372974371215406        5.9579259274948306        312.07685337397243     
   160.66843843038870        5.2372878247909957        5.9621235191129891        318.03897689308542     
   166.60039395126589        5.2372768588568217        5.9663804575653598        324.00535735065080     
   172.88826680339571        5.2372643248996846        5.9706673708592746        329.97602472151004     
   179.55341202665332        5.2372499744614398        5.9749502618719523        335.95097498338197     
   186.61846596330636        5.2372335204908627        5.9791904060729566        341.93016538945494     
   194.10742313615862        5.2372146324891293        5.9833443404436233        347.91350972989858     
   202.04571773938198        5.2371929314193331        5.9873639570441863        353.90087368694276     
   210.46031001879876        5.2371679844670123        5.9911967125342649        359.89207039947701     
   218.87490229821555        5.2371410454691141        5.9946075512281807        365.88667795070518     
   227.28949457763233        5.2371120743037292        5.9976051681600939        371.88428311886526     
   235.70408685704911        5.2370810387596123        6.0002002932393630        377.88448341210460     
   244.11867913646589        5.2370479142479667        6.0024052293838563        383.88688864148844     
   252.53327141588267        5.2370126834432638        6.0042334591557935        389.89112210064422     
   260.94786369529942        5.2369753358726667        6.0056993118976676        395.89682141254190     
   269.36245597471617        5.2369358674707573        6.0068176839385981        401.90363909648050     
   277.77704825413292        5.2368942801135807        6.0076038050761440        407.91124290155665     
   286.19164053354967        5.2368505811435000        6.0080730452015780        413.91931594675822     
   294.60623281296643        5.2368047828941968        6.0082407555722579        419.92755670233049     
   303.02082509238318        5.2367569022231821        6.0081221398403386        425.93567884217083     
   311.43541737179993        5.2367069600575302        6.0077321505368095        431.94341099270764     
   319.85000965121668        5.2366549809571179        6.0070854072183710        437.95049639992601     
   328.26460193063343        5.2366009926985093        6.0061961329800102        443.95669253290600     
   337.18406974681523        5.2365415442728338        6.0049973707208704        449.96168990362685     
   346.10353756299702        5.2364799146403023        6.0035582442459416        455.96524814787279     
   355.02300537917881        5.2364161460561665        6.0018938818447864        461.96714202971759     
   363.94247319536061        5.2363502829459350        6.0000187548148221        467.96716078453244     
   372.86194101154240        5.2362823715195770        5.9979466694927250        473.96510745402514     
   382.31657689669510        5.2362081407402403        5.9955445613701652        479.96065201539528     
   392.33849093495695        5.2361270033688090        5.9927847444758795        485.95343675987118     
   402.96171981551453        5.2360383259262004        5.9896389582671565        491.94307571813835     
   414.22234242890556        5.2359414269707454        5.9860785779495096        497.92915429608786     
   426.15860239910006        5.2358355756390269        5.9820748462388389        503.91122914232670     
   438.81103796750619        5.2357199904973859        5.9775991227815535        509.88882826510826     
   451.46347353591233        5.2356011649270142        5.9729158521168957        515.86174411722516     
   464.11590910431846        5.2354792392003198        5.9680472561020270        521.82979137332723     
   476.76834467272460        5.2353543509795362        5.9630136927614297        527.79280506608870     
   489.42078024113073        5.2352266348479501        5.9578337879737564        533.75063885406246     
   502.83236194364127        5.2350882342219762        5.9521988259186749        539.70283767998114     
   516.24394364615182        5.2349469632356094        5.9464379111663845        545.64927559114756     
   529.65552534866231        5.2348029680361563        5.9405676497828370        551.58984324093035     
   543.06710705117280        5.2346563895667755        5.9346030861612684        557.52444632709160     
   556.47868875368329        5.2345073634529884        5.9285578357658748        563.45300416285750     
   569.89027045619378        5.2343560199492414        5.9224442082833866        569.37544837114092     
   584.10654706085495        5.2341931403687010        5.9159000986841610        575.29134846982504     
   599.17580026179576        5.2340178972569440        5.9089057830797262        581.20025425290476     
   615.14920865479303        5.2338294184015304        5.9014418498209515        587.10169610272567     
   632.08102155137010        5.2336267864711408        5.8934893073738532        592.99518541009957     
   649.01283444794717        5.2334215108419526        5.8855094273395503        598.88069483743914     
   665.94464734452424        5.2332137801284935        5.8775139350048446        604.75820877244394     
   682.87646024110131        5.2330037714210986        5.8695130370119966        610.62772180945592     
   700.82418191147303        5.2327787997108270        5.8610364770633101        616.48875828651921     
   719.84876688206714        5.2325378934143210        5.8520668557191167        622.34082514223837     
   740.01482695089680        5.2322800356371753        5.8425870836848945        628.18341222592323     
   760.18088701972647        5.2320199027457797        5.8331441363659504        634.01655636228918     
   780.34694708855613        5.2317576996318564        5.8237452705491322        639.84030163283830     
   800.51300715738580        5.2314936152626155        5.8143964067893315        645.65469803962765     
   820.67906722621547        5.2312278237995571        5.8051023077762371        651.45980034740387     
   840.84512729504513        5.2309604856594110        5.7958667336053047        657.25566708100916     
   861.01118736387480        5.2306917485151221        5.7866925769580835        663.04235965796727     
   871.33621011911555        5.2305538073362303        5.7820118424377389        668.82437150040505     
   882.28073423967078        5.2304072205277707        5.7770690606582056        674.60144056106321     
   893.22525836022601        5.2302602851701270        5.7721453490701551        680.37358591013333     
   904.82645392801453        5.2301041654303670        5.7669478991875680        686.14053380932091     
   917.12372122987040        5.2299382911456433        5.7614631944981527        691.90199700381902     
   930.15882456983763        5.2297620589307865        5.7556772203871622        697.65767422420618     
   943.97603411020293        5.2295748306151086        5.7495754517927997        703.40724967599897     
   958.62227622299008        5.2293759316409316        5.7431428374069347        709.15039251340590     
   974.14729286254453        5.2291646494213779        5.7363637791082525        714.88675629251418     
   990.60381050047226        5.2289402316529241        5.7292221050452934        720.61597839755950     
   1008.0477191966756        5.2287018845756119        5.7217010344488486        726.33767943200837     
   1026.5382624146512        5.2284487711703740        5.7137831318778591        732.05146256388628     
   1046.1382382257052        5.2281800092785060        5.7054502481618155        737.75691281204809     
   1066.9142125854225        5.2278946696228976        5.6966834447649459        743.45359625681306     
   1087.6901869451399        5.2276089387261901        5.6879810630070891        749.14157731982016     
   1109.7127197664402        5.2273056899733144        5.6788268075870239        754.82040412740719     
   1131.7352525877404        5.2270021265331810        5.6697405655981177        760.49014469300528     
   1153.7577854090407        5.2266983019377662        5.6607199662083199        766.15086465921365     
   1175.7803182303410        5.2263942643865562        5.6517625452875544        771.80262720450116     
   1197.8028510516413        5.2260900571545061        5.6428657634949815        777.44549296799619     
   1219.8253838729415        5.2257857189605179        5.6340270212235541        783.07951998921976     
   1241.8479166942418        5.2254812842995673        5.6252436708026563        788.70476366002242     
   1265.1918014848202        5.2251585113180345        5.6159923566743970        794.32075601669681     
   1289.9363193628333        5.2248163280843789        5.6062484388486036        799.92700445554544     
   1314.6808372408464        5.2244741329338655        5.5965631001449179        805.52356755569031     
   1340.9100261915403        5.2241114244926292        5.5863577837461778        811.10992533943647     
   1368.7129664792758        5.2237270047971869        5.5756032393612642        816.68552857879774     
   1396.5159067670113        5.2233426600744899        5.5649061426763220        822.25043472147411     
   1425.9870234720111        5.2229353590858265        5.5536250060761070        827.80405972755023     
   1457.2264071793106        5.2225037518286239        5.5417238208292057        833.34578354837947     
   1488.4657908866102        5.2220722817898491        5.5298712865689694        838.87565483494848     
   1519.7051745939098        5.2216409457937836        5.5180591681831421        844.39371400313166     
   1550.9445583012093        5.2212097324225715        5.5062791554778832        849.89999315860950     
   1582.1839420085089        5.2207786223146462        5.4945228543999605        855.39451601300948     
   1613.4233257158085        5.2203475884106156        5.4827817784182447        860.87729779142774     
   1644.6627094231080        5.2199165961560894        5.4710473405249598        866.34834513195267     
   1675.9020931304076        5.2194856036696917        5.4593108462109488        871.80765597816367     
   1709.0158398601452        5.2190286924284646        5.4468573535313700        877.25451333169508     
   1744.1164113936670        5.2185442185535296        5.4336295677276309        882.68814289942270     
   1781.3230172192002        5.2180303990737373        5.4195623257033745        888.10770522512610     
   1820.7620193942655        5.2174852895870236        5.4045810040433278        893.51228622916938     
   1862.5673616998347        5.2169067563402702        5.3885995772826796        898.90088580645204     
   1904.3727040054039        5.2163272854604532        5.3724940463508561        904.27337985280292     
   1946.1780463109731        5.2157466358780304        5.3562412076768453        909.62962106047974     
   1987.9833886165422        5.2151645463608869        5.3398175684625411        914.96943862894227     
   2029.7887309221114        5.2145807360303893        5.3231993902602310        920.29263801920251     
   2071.5940732276804        5.2139949049348910        5.3063627385288727        925.59900075773135     
   2113.3994155332493        5.2134067346842734        5.2892835371194229        930.88828429485079     
   2155.2047578388183        5.2128158891467375        5.2719376266420426        936.16022192149285     
   2197.0101001443873        5.2122220152072600        5.2543008256589161        941.41452274715175     
   2232.4610304195098        5.2117160086180387        5.2391209068069085        946.65364365395862     
   2270.0390165111398        5.2111766666860539        5.2227611230144699        951.87640477697312     
   2307.6170026027698        5.2106340635711277        5.2061148796473100        957.08251965662043     
   2347.4496678598975        5.2100548877161170        5.1881274569997986        962.27064711362027     
   2389.6722930324531        5.2094360154162391        5.1686518830039985        967.43929899662430     
   2431.8949182050087        5.2088117521028519        5.1487435692315620        972.58804256585586     
   2474.1175433775643        5.2081816415434474        5.1283790918598573        977.71642165771573     
   2518.8735260604731        5.2075065984979574        5.1062528986985978        982.82267455641431     
   2563.6295087433818        5.2068238627665639        5.0835602245536240        987.90623478096791     
   2608.3854914262906        5.2061328581290169        5.0602751750442341        992.96650995601215     
   2653.1414741091994        5.2054330005467673        5.0363726575162211        998.00288261352841     
   2700.5828157530827        5.2046805009532520        5.0103134053767171        1003.0131960189051     
   2748.0241573969661        5.2039166417067495        4.9835039270859793        1007.9966999459911     
   2798.3119795394823        5.2030933381460738        4.9542115423045816        1012.9509114882957     
   2851.6170710105494        5.2022043276987366        4.9221438560265467        1017.8730553443222     
   2908.1204679698808        5.2012424471210679        4.8869691014359162        1022.7600244457582     
   2964.6238649292122        5.2002598382248273        4.8505746055449892        1027.6105990513031     
   3009.8265824966775        5.1994598751594072        4.8206606978042679        1032.4312597491073     
   3057.7414631181905        5.1985956036933434        4.7880353679443415        1037.2192951170516     
   3105.6563437397035        5.1977143104360310        4.7544752914838844        1041.9737704085355     
   3153.5712243612165        5.1968152942178918        4.7199637608991312        1046.6937341694347     
