 #              _____________________  _______________________             #
 #              ___  __ \__  __ \_  / / /_  /___  ____/_  ___/             #
 #              __  / / /_  /_/ /  / / /_  __/_  __/  _____ \              #
 #              _  /_/ /_  _, _// /_/ / / /_ _  /___  ____/ /              #
 #              /_____/ /_/ |_| \____/  \__/ /_____/  /____/               #
 #                                                                         #
  
 #        time                      T            heat flux [W.L-2]   in    x              directions   cumulative flux
 #-----------------------------------------------------------------------------------------------

   0.0000000000000000        5.5797999999999996       -5.0280511839554975        5.0280511839554975     
   1.0000000000000000        5.5792416474093143       -4.8822378053035136        9.9102889892590120     
   1.9540000000000002        5.5787377076912152       -4.7545036184561553        14.664792607715167     
   2.8641160000000001        5.5782810674428029       -4.6420983645827896        19.306890972297957     
   3.8288389600000006        5.5778219319998357       -4.5326050548399301        23.839496027137887     
   4.8514452976000007        5.5773608634138734       -4.4263581605085234        28.265854187646411     
   5.9354080154560007        5.5768983747978735       -4.3236649135187841        32.589519101165195     
   7.0844084963833609        5.5764349189676281       -4.2248004050294545        36.814319506194650     
   8.3023490061663630        5.5759708777336909       -4.1300032239535032        40.944322730148151     
   9.5933659465363448        5.5755065521680045       -4.0394718116247050        44.983794541772859     
   10.961843903328527        5.5750421541493775       -3.9533616953002340        48.937156237073090     
   12.412430537528239        5.5745777994529497       -3.8717837393153034        52.808939976388395     
   13.950052369779934        5.5741135025907234       -3.7948035182637176        56.603743494652115     
   15.579931511966731        5.5736491735347400       -3.7224418724850810        60.326185367137192     
   17.307603402684734        5.5731846163647818       -3.6546766540227194        63.980862021159915     
   19.138935606845820        5.5727195297837353       -3.5914456137816768        67.572307634941595     
   21.080147743256571        5.5722535093426169       -3.5326503213748310        71.104957956316426     
   23.137832607851966        5.5717860511216815       -3.4781609523098891        74.583118908626318     
   25.318978564323086        5.5713165565322944       -3.4278217272148432        78.010940635841166     
   27.630993278182473        5.5708443378447434       -3.3814567492746646        81.392397385115828     
   30.081728874873424        5.5703686240167336       -3.3388759628095777        84.731273347925409     
   32.679508607365833        5.5698885664008184       -3.2998809508581521        88.031154298783562     
   35.433155123807786        5.5694032439483196       -3.2642703040829240        91.295424602866490     
   38.352020431236255        5.5689116676005863       -3.2318443268533743        94.527268929719867     
   41.446017657110431        5.5684127836602864       -3.2024088965640378        97.729677826283904     
   44.725654716537058        5.5679054760569766       -3.1757783549493492        100.90545618123325     
   48.202069999529286        5.5673885675507275       -3.1517773796549169        104.05723356088816     
   51.887070199501046        5.5668608200426064       -3.1302418542615715        107.18747541514973     
   55.793170411471110        5.5663209342683260       -3.1110188187389545        110.29849423388869     
   59.933636636159378        5.5657675492307677       -3.0939656342871604        113.39245986817585     
   63.444751994695032        5.5653102989669971       -3.0815335408688509        116.47399340904470     
   67.166534274742830        5.5648375503583507       -3.0702859390865096        119.54427934813120     
   70.888316554790620        5.5643754101646774       -3.0606818586457036        122.60496120677691     
   74.833405771641281        5.5638961261487587       -3.0520677583530014        125.65702896512991     
   78.778494988491943        5.5634262937905703       -3.0447875656769230        128.70181653080684     
   82.723584205342604        5.5629649468180569       -3.0386471755359641        131.74046370634281     
   86.668673422193265        5.5625112573601134       -3.0334831549352397        134.77394686127803     
   90.613762639043927        5.5620645132076234       -3.0291569429757077        137.80310380425374     
   94.558851855894588        5.5616240993614676       -3.0255503426625294        140.82865414691628     
   98.503941072745249        5.5611894829419368       -3.0225619802858867        143.85121612720218     
   102.44903028959591        5.5607602007581818       -3.0201044964225487        146.87132062362474     
   106.39411950644657        5.5603358490013077       -3.0181022955880499        149.88942291921279     
   110.33920872329723        5.5599160746470497       -3.0164897267268684        152.90591264593965     
   114.52100329315893        5.5594758910989350       -3.0151505924457114        155.92106323838536     
   118.70279786302062        5.5590401654863690       -3.0141230353593551        158.93518627374470     
   122.88459243288231        5.5586086183450005       -3.0133561215770892        161.94854239532179     
   127.06638700274401        5.5581810044264301       -3.0128055100451436        164.96134790536695     
   131.24818157260572        5.5577571079136190       -3.0124325500716806        167.97378045543863     
   135.68088381665910        5.5573117292085943       -3.0121969711343204        170.98597742657296     
   140.11358606071249        5.5568701040258741       -3.0120866487969931        173.99806407536994     
   144.81225043940910        5.5564059920861455       -3.0120751790200031        177.01013925438994     
   149.79283468082750        5.5559183248514028       -3.0121458582385046        180.02228511262845     
   155.07225397673099        5.5554059961725510       -3.0122782386581353        183.03456335128658     
   160.66843843038870        5.5548678632784316       -3.0124481507696541        186.04701150205622     
   166.60039395126589        5.5543027478899276       -3.0126279172336576        189.05963941928988     
   172.88826680339571        5.5537094372847751       -3.0127868380567904        192.07242625734668     
   179.55341202665332        5.5530866850324605       -3.0128920550513540        195.08531831239804     
   186.61846596330636        5.5524332109665462       -3.0129099402832962        198.09822825268134     
   194.10742313615862        5.5517476997470325       -3.0128082002294354        201.11103645291078     
   202.04571773938198        5.5510287970660084       -3.0125589458738076        204.12359539878460     
   210.46031001879876        5.5502751021398851       -3.0121430493834875        207.13573844816810     
   218.87490229821555        5.5495294097041317       -3.0115952921666422        210.14733374033474     
   227.28949457763233        5.5487913856430549       -3.0109469255079957        213.15828066584274     
   235.70408685704911        5.5480606935103722       -3.0102396208822726        216.16852028672500     
   244.11867913646589        5.5473369881086594       -3.0095245974082756        219.17804488413327     
   252.53327141588267        5.5466199100926605       -3.0088618351175982        222.18690671925086     
   260.94786369529942        5.5459090814525913       -3.0083193399104360        225.19522605916129     
   269.36245597471617        5.5452041017705254       -3.0079724360457933        228.20319849520709     
   277.77704825413292        5.5445045451690040       -3.0079030699665750        231.21110156517366     
   286.19164053354967        5.5438099578888114       -3.0081991155417049        234.21930068071538     
   294.60623281296643        5.5431198564446351       -3.0089536756648410        237.22825435638021     
   303.02082509238318        5.5424337263148571       -3.0102643788343650        240.23851873521457     
   311.43541737179993        5.5417510211262027       -3.0122326720236279        243.25075140723820     
   319.85000965121668        5.5410711622964790       -3.0149631130035641        246.26571452024177     
   328.26460193063343        5.5403935390998331       -3.0185626664553507        249.28427718669712     
   337.18406974681523        5.5396770031376796       -3.0234842344827477        252.30776142117986     
   346.10353756299702        5.5389614056522376       -3.0296425513766145        255.33740397255647     
   355.02300537917881        5.5382459032453024       -3.0371686462036975        258.37457261876017     
   363.94247319536061        5.5375296172299606       -3.0461930248867524        261.42076564364692     
   372.86194101154240        5.5368116359292445       -3.0568448673279427        264.47761051097484     
   382.31657689669510        5.5360475469378061       -3.0701156133724434        267.54772612434726     
   392.33849093495695        5.5352328276810656       -3.0865825224700947        270.63430864681737     
   402.96171981551453        5.5343621562359768       -3.1069355779007961        273.74124422471817     
   414.22234242890556        5.5334292367302762       -3.1319951920983442        276.87323941681655     
   426.15860239910006        5.5324265902742038       -3.1627313391565548        280.03597075597310     
   438.81103796750619        5.5313453067724438       -3.2002837860253761        283.23625454199845     
   451.46347353591233        5.5302424964927583       -3.2430675406675213        286.47932208266599     
   464.11590910431846        5.5291151077187974       -3.2913162427698341        289.77063832543581     
   476.76834467272460        5.5279601033401384       -3.3452371033719301        293.11587542880773     
   489.42078024113073        5.5267744776697949       -3.4050104203380029        296.52088584914571     
   502.83236194364127        5.5254797890539091       -3.4751266079109593        299.99601245705668     
   516.24394364615182        5.5241437351771534       -3.5521461781805366        303.54815863523720     
   529.65552534866231        5.5227629725742355       -3.6361831110531293        307.18434174629033     
   543.06710705117280        5.5213342689739013       -3.7273196177047443        310.91166136399505     
   556.47868875368329        5.5198545159349450       -3.8256076213495653        314.73726898534460     
   569.89027045619378        5.5183207393270202       -3.9310704887744348        318.66833947411902     
   584.10654706085495        5.5166308736006471       -4.0509171837586759        322.71925665787768     
   599.17580026179576        5.5147638703407162       -4.1869611928189343        326.90621785069663     
   615.14920865479303        5.5126955658837389       -4.3411900186214174        331.24740786931807     
   632.08102155137010        5.5103982751508243       -4.5157689608069109        335.76317683012496     
   649.01283444794717        5.5079919238400414       -4.7012377904228861        340.46441462054787     
   665.94464734452424        5.5054727349468600       -4.8973541151293185        345.36176873567717     
   682.87646024110131        5.5028373198516212       -5.1038451268226970        350.46561386249988     
   700.82418191147303        5.4999096290644500       -5.3340259482301393        355.79963981073001     
   719.84876688206714        5.4966518866650125       -5.5902574693143743        361.38989728004441     
   740.01482695089680        5.4930215502425366       -5.8750390577058624        367.26493633775027     
   760.18088701972647        5.4892110938377039       -6.1723958706003357        373.43733220835060     
   780.34694708855613        5.4852181574462548       -6.4817092922131154        379.91904150056371     
   800.51300715738580        5.4810409756542109       -6.8023486261891515        386.72139012675285     
   820.67906722621547        5.4766783418416480       -7.1336759576209623        393.85506608437379     
   840.84512729504513        5.4721295728812045       -7.4750503369553147        401.33011642132908     
   861.01118736387480        5.4673944746017691       -7.8258313736227594        409.15594779495183     
   871.33621011911555        5.4649212658330804       -8.0078107081715597        417.16375850312340     
   882.28073423967078        5.4622448365674252       -8.2032811634742604        425.36703966659769     
   893.22525836022601        5.4595136640430013       -8.4012225558982756        433.76826222249599     
   904.82645392801453        5.4565572581388997       -8.6136968400311034        442.38195906252707     
   917.12372122987040        5.4533547498446735       -8.8417625589701956        451.22372162149725     
   930.15882456983763        5.4498832186912782       -9.0865394221307696        460.31026104362803     
   943.97603411020293        5.4461175046251737       -9.3492075493230828        469.65946859295110     
   958.62227622299008        5.4420300090149087       -9.6310055768995362        479.29047416985065     
   974.14729286254453        5.4375904859435584       -9.9332273948086769        489.22370156465934     
   990.60381050047226        5.4327658254897973       -10.257217267844190        499.48091883250351     
   1008.0477191966756        5.4275198313335968       -10.604363090028372        510.08528192253186     
   1026.5382624146512        5.4218129957145811       -10.976087538938897        521.06136946147080     
   1046.1382382257052        5.4156022754584701       -11.373836956351502        532.43520641782231     
   1066.9142125854225        5.4088408731466506       -11.799067957555025        544.23427437537737     
   1087.6901869451399        5.4019050215668818       -12.227372497851849        556.46164687322926     
   1109.7127197664402        5.3943614915303248       -12.684212578876332        569.14585945210558     
   1131.7352525877404        5.3866310923697709       -13.143304606238305        582.28916405834389     
   1153.7577854090407        5.3787186200882742       -13.604096835233399        595.89326089357724     
   1175.7803182303410        5.3706289739301338       -14.066072039650354        609.95933293322764     
   1197.8028510516413        5.3623671232890917       -14.528748269083795        624.48808120231149     
   1219.8253838729415        5.3539380769477143       -14.991678969158926        639.47976017147039     
   1241.8479166942418        5.3453468557173522       -15.454452337301772        654.93421250877213     
   1265.1918014848202        5.3360639029965480       -15.944367749335365        670.87858025810749     
   1289.9363193628333        5.3260329725863889       -16.462492977394295        687.34107323550177     
   1314.6808372408464        5.3158180033331268       -16.978994350300194        704.32006758580201     
   1340.9100261915403        5.3047915082980444       -17.524191714603099        721.84425930040516     
   1368.7129664792758        5.2928897752687494       -18.099020183729468        739.94327948413468     
   1396.5159067670113        5.2807837285795314       -18.670312688299340        758.61359217243398     
   1425.9870234720111        5.2677326094179815       -19.271423011122039        777.88501518355599     
   1457.2264071793106        5.2536652864322395       -19.903066172912030        797.78808135646807     
   1488.4657908866102        5.2393771160447411       -20.528700998710672        818.31678235517870     
   1519.7051745939098        5.2248800742376869       -21.147897353602353        839.46467970878109     
   1550.9445583012093        5.2101858338061682       -21.760263254716413        861.22494296349748     
   1582.1839420085089        5.1953057734442538       -22.365440774874966        883.59038373837245     
   1613.4233257158085        5.1802509857008374       -22.963103043222006        906.55348678159442     
   1644.6627094231080        5.1650322823703148       -23.552952453440881        930.10643923503528     
   1675.9020931304076        5.1496601984426871       -24.134719650225378        954.24115888526069     
   1709.0158398601452        5.1332056372767170       -24.742029088364269        978.98318797362492     
   1744.1164113936670        5.1155979115650565       -25.374964263088810        1004.3581522367137     
   1781.3230172192002        5.0967634680333074       -26.033438278288070        1030.3915905150018     
   1820.7620193942655        5.0766260936963903       -26.717179328647308        1057.1087698436490     
   1862.5673616998347        5.0551071436223580       -27.425725066577808        1084.5344949102268     
   1904.3727040054039        5.0334346601193660       -28.117930671941110        1112.6524255821680     
   1946.1780463109731        5.0116272691803161       -28.793780077486929        1141.4462056596549     
   1987.9833886165422        4.9897023811136645       -29.453355011819770        1170.8995606714745     
   2029.7887309221114        4.9676761673315744       -30.096825792627559        1200.9963864641022     
   2071.5940732276804        4.9455635677927123       -30.724437261679650        1231.7208237257819     
   2113.3994155332493        4.9233783366007549       -31.336489477908835        1263.0573132036907     
   2155.2047578388183        4.9011331301314218       -31.933313904569928        1294.9906271082607     
   2197.0101001443873        4.8788396392442728       -32.515248065754655        1327.5058751740153     
   2232.4610304195098        4.8599067058905021       -32.998220859385576        1360.5040960334009     
   2270.0390165111398        4.8398137515048179       -33.498599790645464        1394.0026958240462     
   2307.6170026027698        4.8197038012100251       -33.987620725296047        1427.9903165493422     
   2347.4496678598975        4.7983760731494893       -34.493464322969984        1462.4837808723121     
   2389.6722930324531        4.7757650339693178       -35.015858938086218        1497.4996398103983     
   2431.8949182050087        4.7531588476044480       -35.524692153221189        1533.0243319636195     
   2474.1175433775643        4.7305656510876206       -36.020178610450309        1569.0445105740698     
   2518.8735260604731        4.7066407162916892       -36.530632567862263        1605.5751431419321     
   2563.6295087433818        4.6827485548062082       -37.026536799810756        1642.6016799417430     
   2608.3854914262906        4.6588976752930247       -37.508112683741039        1680.1097926254840     
   2653.1414741091994        4.6350961274296800       -37.975606832617373        1718.0853994581014     
   2700.5828157530827        4.6099307584802389       -38.455677229146836        1756.5410766872483     
   2748.0241573969661        4.5848378158411425       -38.920653580095859        1795.4617302673441     
   2798.3119795394823        4.5583293869848713       -39.397067587831422        1834.8587978551755     
   2851.6170710105494        4.5303409178645584       -39.884188434741539        1874.7429862899171     
   2908.1204679698808        4.5008068367221155       -40.381214481221797        1915.1242007711389     
   2964.6238649292122        4.4714147451455375       -40.859697804768871        1955.9838985759079     
   3009.8265824966775        4.4479956426324359       -41.231022804876424        1997.2149213807843     
   3057.7414631181905        4.4232814031892316       -41.612256704795215        2038.8271780855796     
   3105.6563437397035        4.3986803128476826       -41.981614072518731        2080.8087921580982     
   3153.5712243612165        4.3741950493979980       -42.339560965688008        2123.1483531237864     
