 #              _____________________  _______________________             #
 #              ___  __ \__  __ \_  / / /_  /___  ____/_  ___/             #
 #              __  / / /_  /_/ /  / / /_  __/_  __/  _____ \              #
 #              _  /_/ /_  _, _// /_/ / / /_ _  /___  ____/ /              #
 #              /_____/ /_/ |_| \____/  \__/ /_____/  /____/               #
 #                                                                         #
  
 #        time                      T            heat flux [W.L-2]   in    x              directions   cumulative flux
 #-----------------------------------------------------------------------------------------------

   0.0000000000000000        20.000000000000000       -0.0000000000000000        0.0000000000000000     
   1.0000000000000000        19.141696956480796       -268.00822372216874        268.00822372216874     
   1.9540000000000002        18.393070991836762       -498.50291121860488        766.51113494077367     
   2.8641160000000001        17.736745325719898       -695.89759284497086        1462.4087277857445     
   3.8288389600000006        17.097483031538584       -882.04376974749243        2344.4524975332370     
   4.8514452976000007        16.476523072997580       -1055.7543839752441        3400.2068815084813     
   5.9354080154560007        15.874737520431857       -1216.2822190642407        4616.4891005727222     
   7.0844084963833609        15.292664995471002       -1363.2525789009867        5979.7416794737092     
   8.3023490061663630        14.730547799131571       -1496.5997910709202        7476.3414705446294     
   9.5933659465363448        14.188370260085829       -1616.5080887610627        9092.8495593056923     
   10.961843903328527        13.665896256160634       -1723.3574911796381        10816.207050485331     
   12.412430537528239        13.162704384308245       -1817.6753099585960        12633.882360443928     
   13.950052369779934        12.678219822557946       -1900.0938183557917        14533.976178799719     
   15.579931511966731        12.211742481726846       -1971.3144194211616        16505.290598220879     
   17.307603402684734        11.762471529857489       -2032.0783579538377        18537.368956174716     
   19.138935606845820        11.329526743871147       -2083.1436843526403        20620.512640527355     
   21.080147743256571        10.911967371701538       -2125.2678554628960        22745.780495990250     
   23.137832607851966        10.508809264160984       -2159.1951056794373        24904.975601669688     
   25.318978564323086        10.119040969087305       -2185.6475823976511        27090.623184067339     
   27.630993278182473        9.7416392993375531       -2205.3192299832513        29295.942414050591     
   30.081728874873424        9.3755846329900496       -2221.3136490126967        31517.256063063287     
   32.679508607365833        9.0198759276145868       -2233.8500246066592        33751.106087669948     
   35.433155123807786        8.6738823301925461       -2240.4873569775873        35991.593444647537     
   38.352020431236255        8.3366524458384212       -2241.8515927603889        38233.445037407924     
   41.446017657110431        8.0071702391597608       -2238.6008108693709        40472.045848277296     
   44.725654716537058        7.6845266549829461       -2231.3402521913172        42703.386100468611     
   48.202069999529286        7.3679202240982917       -2220.6171732157604        44924.003273684371     
   51.887070199501046        7.0566570033404101       -2206.9178328115713        47130.921106495945     
   55.793170411471110        6.7501471187818778       -2190.6676486159422        49321.588755111887     
   59.933636636159378        6.4478984939240380       -2172.2338868723155        51493.822641984203     
   64.322530834328944        6.1495084617711520       -2151.9301951894886        53645.752837173692     
   68.974758684388689        5.8546540101339133       -2130.0223027211132        55775.775139894802     
   73.906120205452012        5.5630813907745633       -2106.7342802872777        57882.509420182083     
   79.133363417779137        5.2745957429199555       -2082.2548564476151        59964.764276629699     
   84.674241222845893        4.9890512562278921       -2056.7434073360037        62021.507683965705     
   90.547571696216650        4.7063422480531738       -2030.3353627320416        64051.843046697744     
   96.773301997989648        4.4263953759452637       -2003.1468857683092        66054.989932466051     
   103.37257611786903        4.1491630668593578       -1975.2787799217729        68030.268712387828     
   110.36780668494117        3.8746181322940974       -1946.8196496187302        69977.088362006558     
   117.78275108603765        3.6027494597581651       -1917.8483888610237        71894.936750867579     
   125.64259215119992        3.3335586258133616       -1888.4360978946145        73783.372848762199     
   133.97402368027193        3.0670572599653068       -1858.6475353656840        75642.020384127885     
   142.80534110108826        2.8032649946470780       -1828.5422079072202        77470.562592035101     
   152.16653756715357        2.5422078564236892       -1798.1751858872267        79268.737777922332     
   162.08940582118279        2.2839169800208405       -1767.5977175482260        81036.335495470557     
   172.60764617045376        2.0284275542026480       -1736.8576972055007        82773.193192676059     
   183.75698094068099        1.7757779332376238       -1706.0000285223891        84479.193221198453     
   195.57527579712186        1.5260088678883279       -1675.0669120399873        86154.260133238437     
   208.10266834494917        1.2791628251296379       -1644.0980772210507        87798.358210459483     
   221.38170444564611        1.0352833766151759       -1613.1309729271250        89411.489183386613     
   235.45748271238489       0.79441464315527011       -1582.2009259406593        90993.690109327275     
   250.37780767512800       0.55660078710218142       -1551.3412743116012        92545.031383638881     
   266.19335213563568       0.32188554739841280       -1520.5834804756760        94065.614864114556     
   282.95782926377382        9.0311813773778837E-002  -1489.9572279013726        95555.572092015922     
   300.72817501960026      -0.13807876237966621       -2826.1220291850450        98381.694121200970     
   319.56474152077629      -0.36324612228695274       -5109.6712953678043        103491.36541656878     
   339.53150201202288      -0.58513813819355631       -1542.1773146419337        105033.54273121071     
   346.46677257446089      -0.63891555090635421       -2134.9930382500766        107168.53576946078     
   349.47790060617797      -0.56666369057606858       -1522.6141405876440        108691.14991004842     
   349.80121801668531      -0.55924205571917318       -1541.7810474913422        110232.93095753976     
   350.14393447182312      -0.56311253634715153       -1526.6256376218316        111759.55659516160     
   350.50721391426919      -0.55504716083228611       -1550.9612053464336        113310.51780050804     
   350.89229012326200      -0.55977142152982950       -1530.5080501492359        114841.02585065727     
   351.30047090479439      -0.55098678045143323       -1561.2636737243968        116402.28952438167     
   351.73314253321871      -0.55675462126433362       -1533.7158898189373        117936.00541420061     
   352.19177445934849      -0.54719965216234023       -1571.9446348421257        119507.95004904273     
   352.67792430104606      -0.55423649689001275       -1535.2057744442436        121043.15582348697     
   353.19324313324546      -0.54384847618065002       -1581.6614020887744        122624.81722557575     
   353.73948109537685      -0.55241865289899961       -1533.5954468096525        124158.41267238540     
   354.31849333523610      -0.54111588599770455       -1588.4073542644790        125746.82002664988     
   354.93224630948691      -0.55152500592454579       -1527.3546165721618        127274.17464322204     
   355.58282446219278      -0.53919711269513249       -1589.6695885257227        128863.84423174776     
   356.27243730406099      -0.55179324551469300       -1515.2043778615573        130379.04860960932     
   356.85722899396524      -0.54100753534387946       -1565.9414092436673        131944.99001885299     
   357.47710818526377      -0.53019429475272961       -1645.7806862338348        133590.77070508682     
   358.13418012804021      -0.54354380637072885       -1539.3540063187750        135130.12471140560     
   358.83067638738322      -0.53155854511990319       -1619.2406558222503        136749.36536722785     
   359.56896242228680      -0.54747859183420733       -1507.1163207712013        138256.48168799904     
   360.35154561928459      -0.53434967349431450       -1580.8706589820094        139837.35234698106     
   360.69132446142430      -0.54197931471068461       -1526.2155587547868        141363.56790573584     
   361.05149003409241      -0.53591160701391871       -1562.4562469018565        142926.02415263769     
   361.43326554112059      -0.52974629479609225       -1609.9297878363527        144535.95394047405     
   361.83794757857049      -0.52351426249158950       -1672.2473659859645        146208.20130646002     
   362.26691053826738      -0.53410607029512336       -1564.6826289361968        147772.88393539621     
   362.72161127554608      -0.52702589717593595       -1623.5756256211248        149396.45956101734     
   363.20359405706148      -0.51993678115268560       -1703.2270341163135        151099.68659513365     
   363.71449580546783      -0.53320232870600515       -1558.1690015257877        152657.85559665944     
   364.25605165877857      -0.52506032521309787       -1628.5025920643729        154286.35818872383     
   364.83010086328795      -0.51699472185896667       -1726.9422587538133        156013.30044747764     
   365.43859302006786      -0.50908277762440213       -1864.0515984715237        157877.35204594917     
   365.76883388339547      -0.51830113780021481       -1696.8334037287079        159574.18544967787     
   366.11888919852271      -0.51369914118701998       -1765.4536154221514        161339.63906510003     
   366.48994783255762      -0.50905234059495241       -1850.5251307377996        163190.16419583783     
   366.88326998463458      -0.52068285603490816       -1652.3522453201667        164842.51644115799     
   367.30019146583618      -0.51523272899528116       -1725.4734093686086        166567.98985052659     
   367.74212823590989      -0.50976964640856393       -1818.6652347620782        168386.65508528866     
   368.21058121218800      -0.50432939319104941       -1937.3203056522832        170323.97539094093     
   368.70714136704282      -0.51978811210228948       -1644.1772561925241        171968.15264713345     
   369.23349513118893      -0.51322598150864751       -1735.4395057404402        173703.59215287390     
   369.79143012118379      -0.50674051703128697       -1855.8478671690766        175559.44002004297     
   370.38284121057836      -0.50038985678507597       -2013.8547019387286        177573.29472198169     
   370.70381183701460      -0.51095863452168555       -1757.9205110646885        179331.21523304639     
   371.04404070103698      -0.50713269443253184       -1830.3700198100034        181161.58525285640     
   371.40468329690071      -0.50326633322472847       -1917.5619320957046        183079.14718495210     
   371.78696444851624      -0.49937817010261315       -2022.4908108578206        185101.63799580993     
   372.19218246922873      -0.49548911942556756       -2148.6168757884470        187250.25487159839     
   372.62171357118393      -0.51055996346872878       -1742.0024862693672        188992.25735786775     
   373.07701653925648      -0.50568347418820647       -1835.5347153158796        190827.79207318363     
   373.55963768541335      -0.50082984959639587       -1951.7540393548636        192779.54611253849     
   374.07121610033965      -0.49603439118513881       -2095.6311592097668        194875.17727174825     
   374.61348922016157      -0.49133494612115564       -2272.6861027668983        197147.86337451515     
   375.18829872717276      -0.48677122805101092       -2488.6814994084862        199636.54487392365     
   375.50025934281791      -0.49857927239855532       -1990.3390380153344        201626.88391193899     
   375.83093759540174      -0.49565946521734949       -2081.1508838845339        203708.03479582354     
   376.18145654314060      -0.49271495525667003       -2186.5323299847864        205894.56712580833     
   376.55300662774380      -0.48975964197906141       -2308.6317399840827        208203.19886579242     
   376.94684971742316      -0.48680901619972927       -2449.7282064255801        210652.92707221801     
   377.36432339248330      -0.48388009144087080       -2612.1379183242216        213265.06499054222     
   377.80684548804703      -0.48099127805462755       -2798.0663928350991        216063.13138337733     
   378.10705247767748      -0.49316081537113865       -2137.8042732573604        218200.93565663468     
   378.42527188668578      -0.49072262262895505       -2232.3340436604940        220433.26970029518     
   378.76258446023456      -0.48826207930885945       -2339.8839919888524        222773.15369228402     
   379.12013578819625      -0.48579020409402490       -2462.0052429439643        225235.15893522798     
   379.49914019583565      -0.48331930090356812       -2600.2609855994001        227835.41992082738     
   379.90088486793343      -0.48086291975745271       -2756.1389718693399        230591.55889269672     
   380.32673422035708      -0.47843577594275410       -2930.9277781347905        233522.48667083151     
   380.77813453392611      -0.47605362144095165       -3125.5519385591115        236648.03860939061     
   381.25661886630928      -0.47373306349505145       -3340.3649026211792        239988.40351201181     
   381.58122263739801      -0.48794298934951702       -2306.2434899726786        242294.64700198447     
   381.92530263475209      -0.48575219034015360       -2411.1170650775762        244705.76406706206     
   382.29002743194741      -0.48355171802626634       -2528.6503040024254        247234.41437106449     
   382.67663571697443      -0.48135257613732868       -2659.9173527360681        249894.33172380054     
   383.08644049910311      -0.47916688161937637       -2805.8523223437455        252700.18404614428     
   383.52083356815950      -0.47700779317272990       -2967.1405516514224        255667.32459779570     
   383.98129022135930      -0.47488939726059792       -3144.0822337014997        258811.40683149721     
   384.46937427375104      -0.47282654693018256       -3336.4308059196314        262147.83763741684     
   384.98674336928633      -0.47083465009913467       -3543.2140416406446        265691.05167905748     
   385.53515461055372      -0.46892940585452153       -3658.4886999748242        269349.54037903232     
   386.11647052629712      -0.46712648981167404       -3669.5979773156255        273019.13835634792     
   386.73266539698517      -0.46544119265810147       -3677.7708844809663        276696.90924082889     
   387.38583195991447      -0.46388801957173464       -3682.8990021178242        280379.80824294669     
   388.07818851661955      -0.46248026208607246       -3684.9200992426545        284064.72834218934     
   388.81208646672695      -0.46122955793180737       -3683.8197211456936        287748.54806333501     
   389.59001829384079      -0.46014545809376317       -3679.6307944913383        291428.17885782634     
   390.41462603058142      -0.45923502339991773       -3672.4312743353530        295100.61013216170     
   391.28871023152652      -0.45850247498745605       -3662.3399982511146        298762.95013041282     
   392.21523948452830      -0.45794892355386274       -3649.5110281790467        302412.46115859185     
   393.19736049271017      -0.45757220103629032       -3634.1268368255946        306046.58799541742     
   394.23840876138297      -0.45736681501766135       -3616.3907256507978        309662.97872106824     
   395.34191992617616      -0.45732404064695975       -3596.5188481780579        313259.49756924628     
   396.51164176085695      -0.45743215731465731       -3574.7321664794231        316834.22973572568     
   397.75154690561857      -0.45767682811809185       -3551.2486070256550        320385.47834275133     
   399.06584635906592      -0.45804160990959708       -3526.2756232674778        323911.75396601879     
   400.45900377972009      -0.45850857128219502       -3500.0033315991072        327411.75729761791     
   401.93575064561350      -0.45905898620120256       -3472.5983731253828        330884.35567074327     
   403.50110232346049      -0.45967406317705228       -3444.1986645544857        334328.55433529778     
   405.16037510197833      -0.46033566487826555       -3414.9092267453584        337743.46356204315     
   406.91920424720723      -0.46102697171629820       -3384.7993011169388        341128.26286316011     
   408.78356314114990      -0.46173304573163143       -3353.9009618271834        344482.16382498731     
   410.75978356872912      -0.46244125824595866       -3322.2093877833072        347804.37321277062     
   412.85457722196310      -0.46314155596005380       -3289.6848635483857        351094.05807631899     
   415.07505849439110      -0.46382655473755030       -3256.2564342802962        354350.31451059930     
   417.42876864316480      -0.46449146700021648       -3221.8269623103215        357572.14147290960     
   419.92370140086490      -0.46513388580618176       -3200.0180444506359        360772.15951736021     
   422.56833012402700      -0.46409313662800716       -3222.3442212057544        363994.50373856595     
   425.37163657057880      -0.46329876009188253       -3214.8670006202838        367209.37073918624     
   428.34314140392371      -0.46273517825954186       -3177.6386745220830        370387.00941370835     
   431.49293652726936      -0.46237134146698677       -3113.8277404256301        373500.83715413400     
   434.83171935801573      -0.46216979325539853       -3028.3100141996115        376529.14716833364     
   438.37082915860691      -0.46209368962460518       -2926.3619581758749        379455.50912650954     
   442.12228554723356      -0.46211163333396132       -2812.7381369140508        382268.24726342357     
   446.09882931917775      -0.46220052466247036       -2691.2007026164192        384959.44796604000     
   450.31396571743863      -0.46234683798325971       -2564.4217037821409        387523.86966982216     
   454.78201029959519      -0.46254681726478913       -2434.1243272569127        389957.99399707909     
   459.51813755668110      -0.46280607123947015       -2301.3392116343853        392259.33320871345     
   464.53843244919216      -0.46313897553774186       -2166.6887159730677        394426.02192468650     
   469.85994503525387      -0.46356818862741700       -2030.6494303406748        396456.67135502718     
   475.50074837647929      -0.46412448931730876       -1893.7700195040113        398350.44137453119     
   481.47999991817824      -0.46436318709984398       -1776.1790606435241        400126.62043517473     
   487.45925145987724      -0.46547797451416306       -1636.6298452403228        401763.25028041506     
   493.79725809407813      -0.46596900474639319       -1527.1817539010808        403290.43203431612     
   500.13526472827903      -0.46683429106179153       -1418.3252841546944        404708.75731847080     
   506.47327136247992      -0.46803691633213323       -1314.0859844567360        406022.84330292756     
