 #              _____________________  _______________________             #
 #              ___  __ \__  __ \_  / / /_  /___  ____/_  ___/             #
 #              __  / / /_  /_/ /  / / /_  __/_  __/  _____ \              #
 #              _  /_/ /_  _, _// /_/ / / /_ _  /___  ____/ /              #
 #              /_____/ /_/ |_| \____/  \__/ /_____/  /____/               #
 #                                                                         #
  
 #        time                      T            heat flux [W.L-2]   in    x              directions   cumulative flux
 #-----------------------------------------------------------------------------------------------

   0.0000000000000000        20.000000000000000       -0.0000000000000000        0.0000000000000000     
   1.0000000000000000        19.999999999999996       -4.5190517994350991E-012   4.5190517994350991E-012
   1.9540000000000002        19.999999999999989       -4.6320280944272379E-011   5.0839332743707476E-011
   2.8641160000000001        19.999999999999972       -2.2482282702338625E-010   2.7566215976709372E-010
   3.8288389600000006        19.999999999999883       -9.3883301135776520E-010   1.2144951711248590E-009
   4.8514452976000007        19.999999999999535       -3.5248604038933736E-009   4.7393555750182326E-009
   5.9354080154560007        19.999999999998270       -1.1983395612760514E-008   1.6722751187778748E-008
   7.0844084963833609        19.999999999994124       -3.7386115569352752E-008   5.4108866757131499E-008
   8.3023490061663630        19.999999999981441       -1.0824823729359177E-007   1.6235710405072328E-007
   9.5933659465363448        19.999999999945128       -2.9372594128512391E-007   4.5608304533584716E-007
   10.961843903328527        19.999999999846935       -7.5305932124532983E-007   1.2091423665811770E-006
   12.412430537528239        19.999999999594422       -1.8365788598850910E-006   3.0457212264662680E-006
   13.950052369779934        19.999999998973497       -4.2844138703092896E-006   7.3301350967755575E-006
   15.579931511966731        19.999999997506816       -9.6043228528438871E-006   1.6934457949619446E-005
   17.307603402684734        19.999999994166195       -2.0767708977430762E-005   3.7702166927050212E-005
   19.138935606845820        19.999999986806113       -4.3454835770893805E-005   8.1157002697944023E-005
   21.080147743256571        19.999999971078793       -8.8221662878681153E-005   1.6937866557662518E-004
   23.137832607851966        19.999999938411506       -1.7417241671069202E-004   3.4355108228731720E-004
   25.318978564323086        19.999999872330058       -3.3502842708739818E-004   6.7857950937471538E-004
   27.630993278182473        19.999999741937494       -6.2891296084182171E-004   1.3074924702165371E-003
   30.081728874873424        19.999999490616275       -1.1537522365451900E-003   2.4612447067617269E-003
   32.679508607365833        19.999999016899196       -2.0709472238597173E-003   4.5321919306214441E-003
   35.433155123807786        19.999998142799033       -3.6409094266952684E-003   8.1731013573167130E-003
   38.352020431236255        19.999996562519712       -6.2751619190606379E-003   1.4448263276377351E-002
   41.446017657110431        19.999993761189508       -1.0610931307840634E-002   2.5059194584217986E-002
   44.725654716537058        19.999988888857107       -1.7615391382158736E-002   4.2674585966376723E-002
   48.202069999529286        19.999980569305272       -2.8727792226203246E-002   7.1402378192579968E-002
   51.887070199501046        19.999966616184192       -4.6048374269545764E-002  0.11745075246212573     
   55.793170411471110        19.999943620625199       -7.2582910440895876E-002  0.19003366290302159     
   59.933636636159378        19.999906365184810      -0.11255057856112745       0.30258424146414903     
   64.322530834328944        19.999847009332633      -0.17176027214374323       0.47434451360789226     
   68.974758684388689        19.999753982771896      -0.25805610227718423       0.73240061588507643     
   73.906120205452012        19.999610516122161      -0.38182656026445017        1.1142271761495266     
   79.133363417779137        19.999392735730389      -0.55656367010564767        1.6707908462551742     
   84.674241222845893        19.999067252676408      -0.79944884864235866        2.4702396948975327     
   90.547571696216650        19.998588187466297       -1.1319318645694150        3.6021715594669477     
   96.773301997989648        19.997893593178503       -1.5802593615158431        5.1824309209827906     
   103.37257611786903        19.996901271905244       -2.1759012814139496        7.3583322023967401     
   110.36780668494117        19.995504022018324       -2.9558187058455938        10.314150908242334     
   117.78275108603765        19.993564405403582       -3.9625165252179899        14.276667433460325     
   125.64259215119992        19.990909181054043       -5.2438299710120804        19.520497404472405     
   133.97402368027193        19.987323609489788       -6.8524058016391436        26.372903206111548     
   142.80534110108826        19.982545885502098       -8.8448564148805620        35.217759620992112     
   152.16653756715357        19.976261998422530       -11.280587119678170        46.498346740670286     
   162.08940582118279        19.968101343678459       -14.220321242971197        60.718667983641481     
   172.60764617045376        19.957633412354902       -17.724372185200526        78.443040168842003     
   183.75698094068099        19.944365864474605       -21.850733342558783        100.29377351140079     
   195.57527579712186        19.927744246922174       -26.653073607399506        126.94684711880029     
   208.10266834494917        19.907153551160476       -32.178736162745508        159.12558328154580     
   221.38170444564611        19.881921724157625       -38.466840565685402        197.59242384723120     
   235.45748271238489        19.851325154858166       -45.546582662893989        243.13900651012520     
   250.37780767512800        19.814596065364093       -53.435814561069400        296.57482107119461     
   266.19335213563568        19.770931647773047       -62.139969222489817        358.71479029368442     
   282.95782926377382        19.719504710358436       -71.651373210800315        430.36616350448475     
   300.72817501960026        19.659475534908367       -81.948968727838732        512.31513223232344     
   319.56474152077629        19.590004603184962       -92.998444266179249        605.31357649850270     
   339.53150201202288        19.510265823577097       -104.75275489722108        710.06633139572375     
   346.46677257446089        19.481853302186657       -108.83514963943196        818.90148103515571     
   349.47790060617797        19.469383948376205       -110.60728666618860        929.50876770134437     
   349.80121801668531        19.468043527913192       -110.79755487904377        1040.3063225803880     
   350.14393447182312        19.466620953451990       -110.99923515583376        1151.3055577362218     
   350.50721391426919        19.465111091932897       -111.21301181918486        1262.5185695554067     
   350.89229012326200        19.463508470674935       -111.43960941069179        1373.9581789660983     
   351.30047090479439        19.461807260189172       -111.67979566191956        1485.6379746280179     
   351.73314253321871        19.460001249380284       -111.93438402717403        1597.5723586551919     
   352.19177445934849        19.458083818865550       -112.20423635674646        1709.7765950119383     
   352.67792430104606        19.456047912254192       -112.49026571692677        1822.2668607288651     
   353.19324313324546        19.453886005216010       -112.79343936301224        1935.0603000918775     
   353.73948109537685        19.451590072153110       -113.11478187156895        2048.1750819634462     
   354.31849333523610        19.449151550271935       -113.45537843800180        2161.6304604014481     
   354.93224630948691        19.446561300834951       -113.81637834532229        2275.4468387467705     
   355.58282446219278        19.443809567351760       -114.19899860963453        2389.6458373564051     
   356.27243730406099        19.440885930448626       -114.60452780752594        2504.2503651639308     
   356.85722899396524        19.438401827393747       -114.94838120293851        2619.1987463668693     
   357.47710818526377        19.435763196306958       -115.31281942590954        2734.5115657927790     
   358.13418012804021        19.432960123086950       -115.69907112912946        2850.2106369219086     
   358.83067638738322        19.429982004728718       -116.10843487300191        2966.3190717949105     
   359.56896242228680        19.426817514953537       -116.54228520422167        3082.8613569991321     
   360.35154561928459        19.423454576971999       -117.00208136646640        3199.8634383655985     
   360.69132446142430        19.421992850468794       -117.20169458099706        3317.0651329465954     
   361.05149003409241        19.420441597921830       -117.41326381065332        3434.4783967572489     
   361.43326554112059        19.418795231859082       -117.63750422901354        3552.1159009862627     
   361.83794757857049        19.417047797556506       -117.87517257478700        3669.9910735610497     
   362.26691053826738        19.415192953135776       -118.12707042795476        3788.1181439890042     
   362.72161127554608        19.413223942790488       -118.39404680816446        3906.5121907971688     
   363.20359405706148        19.411133567996103       -118.67700091383922        4025.1891917110079     
   363.71449580546783        19.408914156537218       -118.97688500790333        4144.1660767189114     
   364.25605165877857        19.406557529171412       -119.29470745606471        4263.4607841749757     
   364.83010086328795        19.404054963732889       -119.63153592340589        4383.0923200983816     
   365.43859302006786        19.401397156462171       -119.98850073497076        4503.0808208333519     
   365.76883388339547        19.399953224678086       -120.18221150544036        4623.2630323387921     
   366.11888919852271        19.398420972098009       -120.38751862121845        4743.6505509600102     
   366.48994783255762        19.396794901167038       -120.60511552103819        4864.2556664810481     
   366.88326998463458        19.395069153726315       -120.83573547238285        4985.0914019534312     
   367.30019146583618        19.393237492523664       -121.08015512465073        5106.1715570780816     
   367.74212823590989        19.391293275191128       -121.33919701759478        5227.5107540956760     
   368.21058121218800        19.389229426281933       -121.61373222543945        5349.1244863211159     
   368.70714136704282        19.387038407208262       -121.90468314241940        5471.0291694635353     
   369.23349513118893        19.384712183907709       -122.21302641555519        5593.2421958790901     
   369.79143012118379        19.382242192051123       -122.53979603034207        5715.7819919094318     
   370.38284121057836        19.379619299588420       -122.88608655489244        5838.6680784643240     
   370.70381183701460        19.378194429608861       -123.07400107323232        5961.7420795375565     
   371.04404070103698        19.376682510689903       -123.27316019183853        6085.0152397293950     
   371.40468329690071        19.375078136538022       -123.48423602643275        6208.4994757558279     
   371.78696444851624        19.373375548157679       -123.70793904116447        6332.2074147969925     
   372.19218246922873        19.371568615496926       -123.94502167992388        6456.1524364769166     
   372.62171357118393        19.369650812153424       -124.19628078958965        6580.3487172665064     
   373.07701653925648        19.367615188211506       -124.46256017417072        6704.8112774406773     
   373.55963768541335        19.365454341059344       -124.74475328551269        6829.5560307261903     
   374.07121610033965        19.363160384021910       -125.04380605614975        6954.5998367823404     
   374.61348922016157        19.360724912631468       -125.36071987988683        7079.9605566622276     
   375.18829872717276        19.358138968341738       -125.69655474549363        7205.6571114077215     
   375.50025934281791        19.356734254774544       -125.87879263290753        7331.5359040406292     
   375.83093759540174        19.355243819794467       -126.07193165756810        7457.6078356981971     
   376.18145654314060        19.353662350475641       -126.27662321800742        7583.8844589162045     
   376.55300662774380        19.351984189079765       -126.49355564011303        7710.3780145563178     
   376.94684971742316        19.350203314808841       -126.72345787993093        7837.1014724362485     
   377.36432339248330        19.348313319217382       -126.96710186570724        7964.0685743019558     
   377.80684548804703        19.346307379824065       -127.22530496633632        8091.2938792682917     
   378.10705247767748        19.344945387223184       -127.40044388003392        8218.6943231483256     
   378.42527188668578        19.343500358821533       -127.58605831705925        8346.2803814653853     
   378.76258446023456        19.341967157075100       -127.78277423564573        8474.0631557010311     
   379.12013578819625        19.340340312441104       -127.99125301124509        8602.0544087122762     
   379.49914019583565        19.338614005586180       -128.21219505715493        8730.2666037694307     
   379.90088486793343        19.336782043826496       -128.44634207592946        8858.7129458453601     
   380.32673422035708        19.334837835855176       -128.69447943265510        8987.4074252780156     
   380.77813453392611        19.332774364620892       -128.95743865544566        9116.3648639334606     
   381.25661886630928        19.330584158209764       -129.23610006849819        9245.6009640019583     
   381.58122263739801        19.329096983716539       -129.42511108812872        9375.0260750900870     
   381.92530263475209        19.327519065021423       -129.62542123224446        9504.6514963223308     
   382.29002743194741        19.325844778799500       -129.83770524951782        9634.4892015718488     
   382.67663571697443        19.324068137276971       -130.06267563946739        9764.5518772113155     
   383.08644049910311        19.322182768644169       -130.30108684443505        9894.8529640557499     
   383.52083356815950        19.320181891076700       -130.55373765305026        10025.406701708800     
   383.98129022135930        19.318058284858594       -130.82147373154351        10156.228175440343     
   384.46937427375104        19.315804262455870       -131.10519028811893        10287.333365728462     
   384.98674336928633        19.313411636376486       -131.40583487560158        10418.739200604063     
   385.53515461055372        19.310871684638268       -131.72441033734188        10550.463610941404     
   386.11647052629712        19.308175113651508       -132.06197790125043        10682.525588842655     
   386.73266539698517        19.305312018306488       -132.41966042649040        10814.945249269145     
   387.38583195991447        19.302271839038472       -132.79864580695971        10947.743895076104     
   388.07818851661955        19.299043315623639       -133.20019053513417        11080.944085611238     
   388.81208646672695        19.295614437438950       -133.62562342915638        11214.569709040394     
   389.59001829384079        19.291972389896749       -134.07634952509179        11348.646058565486     
   390.41462603058142        19.288103496741435       -134.55385413519721        11483.199912700684     
   391.28871023152652        19.283993157870221       -135.05970707151968        11618.259619772203     
   392.21523948452830        19.279625782313257       -135.59556703243936        11753.855186804643     
   393.19736049271017        19.274984715979929       -136.16318614749173        11890.018372952136     
   394.23840876138297        19.270052163748254       -136.76441467310173        12026.782787625238     
   395.34191992617616        19.264809105443085       -137.40120582856562        12164.183993453804     
   396.51164176085695        19.259235205216168       -138.07562075742419        12302.259614211229     
   397.75154690561857        19.253308713807847       -138.78983359447639        12441.049447805704     
   399.06584635906592        19.247006363136169       -139.54613661259819        12580.595584418303     
   400.45900377972009        19.240303252625232       -140.34694541623040        12720.942529834532     
   401.93575064561350        19.233172726651400       -141.19480413969731        12862.137333974229     
   403.50110232346049        19.225586242454547       -142.09239059830838        13004.229724572539     
   405.16037510197833        19.217513227832505       -143.04252132817490        13147.272245900713     
   406.91920424720723        19.208920927912601       -144.04815643719044        13291.320402337904     
   408.78356314114990        19.199774240275389       -145.11240417429420        13436.432806512199     
   410.75978356872912        19.190035537695302       -146.23852510761236        13582.671331619811     
   412.85457722196310        19.179664477762731       -147.42993578427308        13730.101267404085     
   415.07505849439110        19.168617798665256       -148.69021172607833        13878.791479130163     
   417.42876864316480        19.156849100435227       -150.02308959603914        14028.814568726202     
   419.92370140086490        19.144308611020548       -151.43246835079427        14180.247037076997     
   422.56833012402700        19.130942995038978       -152.92253634492903        14333.169573421927     
   425.37163657057880        19.116694890128489       -154.49739929364696        14487.666972715573     
   428.34314140392371        19.101502841656959       -156.16143650987880        14643.828409225453     
   431.49293652726936        19.085300925793653       -157.91918000640905        14801.747589231862     
   434.83171935801573        19.068018433609737       -159.77530738479226        14961.522896616654     
   438.37082915860691        19.049579538788450       -161.73463210864421        15123.257528725298     
   442.12228554723356        19.029902949684427       -163.80209064331544        15287.059619368614     
   446.09882931917775        19.008901546983509       -165.98272583986508        15453.042345208480     
   450.31396571743863        18.986482008852128       -168.28166585506182        15621.324011063542     
   454.78201029959519        18.962544426234942       -170.70409784766338        15792.028108911205     
   459.51813755668110        18.936981911857796       -173.25523568345213        15965.283344594656     
   464.53843244919216        18.909680207512235       -175.94028091763064        16141.223625512286     
   469.85994503525387        18.880517295325781       -178.76437639337368        16319.988001905660     
   475.50074837647929        18.849363019947464       -181.73255188383709        16501.720553789499     
   481.47999991817824        18.816078717690949       -184.84967131763585        16686.570225107134     
   487.45925145987724        18.782544211006023       -187.93699947136651        16874.507224578501     
   493.79725809407813        18.746728857117127       -191.17546215228768        17065.682686730790     
   500.13526472827903        18.710656920717582       -194.37917672520436        17260.061863455994     
   506.47327136247992        18.674340389075745       -197.54758511725186        17457.609448573246     
