 #              _____________________  _______________________             #
 #              ___  __ \__  __ \_  / / /_  /___  ____/_  ___/             #
 #              __  / / /_  /_/ /  / / /_  __/_  __/  _____ \              #
 #              _  /_/ /_  _, _// /_/ / / /_ _  /___  ____/ /              #
 #              /_____/ /_/ |_| \____/  \__/ /_____/  /____/               #
 #                                                                         #
  
 #        time                      T            heat flux [W.L-2]   in    x              directions   cumulative flux
 #-----------------------------------------------------------------------------------------------

   0.0000000000000000        5.0792999999999999       -5.9531136824958040        5.9531136824958040     
   1.0000000000000000        5.0793006146775292       -5.9533009405233388        11.906414623019142     
   1.8999999999999999        5.0793011394833121       -5.9534564682006641        17.859871091219805     
   2.7100000000000000        5.0793015903321779       -5.9535869555256102        23.813458046745417     
   3.5200000000000000        5.0793020210412303       -5.9537090149010217        29.767167061646440     
   4.3300000000000001        5.0793024327422973       -5.9538237270303247        35.720990788676765     
   5.1400000000000006        5.0793028263514666       -5.9539321967435948        41.674922985420359     
   5.9500000000000011        5.0793032025581075       -5.9540355526048065        47.628958538025167     
   6.7600000000000016        5.0793035618145517       -5.9541349439292386        53.583093481954407     
   7.5700000000000021        5.0793039043268582       -5.9542315359143236        59.537325017868731     
   8.3800000000000026        5.0793042300470077       -5.9543265034667119        65.491651521335442     
   9.1900000000000031        5.0793045386667162       -5.9544210242022890        71.446072545537731     
   10.000000000000004        5.0793048296130019       -5.9545162710044668        77.400588816542196     
   10.810000000000004        5.0793051020463338       -5.9546134046853965        83.355202221227586     
   11.668600000000005        5.0793053686846479       -5.9547198429759689        89.309922064203562     
   12.578716000000005        5.0793056244237160       -5.9548381448030652        95.264760209006624     
   13.543438960000005        5.0793058623491634       -5.9549714970832976        101.21973170608992     
   14.508161920000004        5.0793060636687848       -5.9551145145250430        107.17484622061497     
   15.530768257600005        5.0793062311961652       -5.9552788857950558        113.13012510641002     
   16.614730975456006        5.0793063508303149       -5.9554695731340752        119.08559467954410     
   17.763731456383365        5.0793064040039839       -5.9556924501353361        125.04128712967943     
   18.912731937310724        5.0793063741809101       -5.9559380839221605        130.99722521360158     
   20.130672447093726        5.0793062371914077       -5.9562260797603930        136.95345129336198     
   21.421689387463708        5.0793059580610738       -5.9565644131517868        142.91001570651378     
   22.790167344255888        5.0793054920245888       -5.9569620534073806        148.86697775992116     
   24.158645301048068        5.0793048351639936       -5.9574000427819334        154.82437780270308     
   25.609231935247781        5.0793038988120136       -5.9579105964397900        160.78228839914289     
   27.146853767499476        5.0793026049658270       -5.9585041526155686        166.74079255175846     
   28.684475599751170        5.0793009776179181       -5.9591497459352309        172.69994229769370     
   30.314354741937969        5.0792988390491907       -5.9598913180947592        178.65983361578844     
   32.042026632655976        5.0792960610612452       -5.9607393277348759        184.62057294352331     
   33.769698523373982        5.0792927259545646       -5.9616461356630088        190.58221907918633     
   35.601030727535068        5.0792885107433872       -5.9626687878783828        196.54488786706472     
   37.432362931696154        5.0792835630054398       -5.9637475938457642        202.50863546091048     
   39.373575068106902        5.0792774348312975       -5.9649471951036448        208.47358265601412     
   41.314787204517650        5.0792703654045326       -5.9661953832836607        214.43977803929778     
   43.372472069113044        5.0792617491037619       -5.9675636510195504        220.40734169031734     
   45.430156933708439        5.0792519493502244       -5.9689675352257900        226.37630922554314     
   47.611302890179559        5.0792401648307672       -5.9704841018681130        232.34679332741126     
   49.792448846650679        5.0792269225460807       -5.9720177385383595        238.31881106594963     
   52.104463560510062        5.0792111822504307       -5.9736492433406569        244.29246030929028     
   54.416478274369446        5.0791936807712705       -5.9752738672129206        250.26773417650321     
   56.867213871060393        5.0791730905007073       -5.9769737278600541        256.24470790436328     
   59.317949467751340        5.0791504112013151       -5.9786378693350102        262.22334577369827     
   61.915729200243746        5.0791239745061993       -5.9803467596460846        268.20369253334434     
   64.513508932736158        5.0790951026501228       -5.9819869961706438        274.18567952951497     
   67.111288665228571        5.0790637670451639       -5.9835463486300995        280.16922587814508     
   69.864935181670518        5.0790277601916181       -5.9850953330951349        286.15432121124024     
   72.618581698112465        5.0789889507611399       -5.9865291252977748        292.14085033653799     
   75.537447005540926        5.0789446618411622       -5.9879078377635127        298.12875817430148     
   78.456312312969388        5.0788972317836647       -5.9891357376260235        304.11789391192752     
   81.375177620397849        5.0788466802796171       -5.9902047678973158        310.10809867982482     
   84.294042927826311        5.0787930359875935       -5.9911084318595123        316.09920711168434     
   87.212908235254773        5.0787363354873598       -5.9918416543070263        322.09104876599139     
   90.131773542683234        5.0786766222975412       -5.9924006441736397        328.08344941016503     
   93.050638850111696        5.0786139459608775       -5.9927827613982627        334.07623217156328     
   95.969504157540158        5.0785483611984592       -5.9929863900473164        340.06921856161057     
   98.888369464968619        5.0784799271325873       -5.9930108190401965        346.06222938065076     
   101.80723477239708        5.0784087065766652       -5.9928561313035127        352.05508551195430     
   104.72610007982554        5.0783347653896431       -5.9925231017568237        358.04760861371113     
   107.64496538725400        5.0782581718918491       -5.9920131042230924        364.03962171793421     
   110.56383069468247        5.0781789963386714       -5.9913280271265625        370.03094974506075     
   113.48269600211093        5.0780973104483094       -5.9904701976625008        376.02141994272324     
   116.40156130953939        5.0780131869797147       -5.9894423140309048        382.01086225675414     
   119.32042661696785        5.0779266993568397       -5.9882473852240317        387.99910964197818     
   122.23929192439631        5.0778379213353846       -5.9868886778392110        393.98599831981738     
   125.15815723182477        5.0777469267083974       -5.9853696693562233        399.97136798917359     
   128.07702253925325        5.0776537890472264       -5.9836940073312581        405.95506199650487     
   130.99588784668171        5.0775585814745101       -5.9818654739613875        411.93692747046623     
   133.91475315411017        5.0774613764661423       -5.9798879555012352        417.91681542596746     
   136.83361846153863        5.0773622456793275       -5.9777654160513318        423.89458084201880     
   139.75248376896710        5.0772612598040725       -5.9755018752548956        429.87008271727370     
   142.67134907639556        5.0771584884356713       -5.9731013894827010        435.84318410675638     
   145.59021438382402        5.0770539999659494       -5.9705680361221658        441.81375214287857     
   148.50907969125248        5.0769478614912105       -5.9679059006138573        447.78165804349243     
   151.42794499868094        5.0768401387350393       -5.9651190659199118        453.74677710941233     
   154.34681030610940        5.0767308959842588       -5.9622116041283064        459.70898871354063     
   157.26567561353787        5.0766201960365294       -5.9591875699438637        465.66817628348451     
   160.18454092096633        5.0765081001581942       -5.9560509958201919        471.62422727930471     
   163.10340622839479        5.0763946680511349       -5.9528058885328727        477.57703316783756     
   166.02227153582325        5.0762799578275217       -5.9494562270018108        483.52648939483936     
   168.94113684325171        5.0761640260919885       -5.9460059664976148        489.47249536133700     
   172.03513406912589        5.0760398310995365       -5.9422403169826641        495.41473567831969     
   175.31477112855251        5.0759067904661732       -5.9381324709443444        501.35286814926405     
   178.59440818797913        5.0757724285344077       -5.9339138459845149        507.28678199524859     
   181.87404524740575        5.0756368152334721       -5.9295898758302101        513.21637187107876     
   185.15368230683237        5.0755000179098593       -5.9251659604141187        519.14153783149288     
   188.43331936625898        5.0753621013427868       -5.9206474712549531        525.06218530274782     
   191.71295642568560        5.0752231277637385       -5.9160397573971908        530.97822506014506     
   194.99259348511222        5.0750831568792947       -5.9113481517686104        536.88957321191367     
   198.27223054453884        5.0749422458965761       -5.9065779778336092        542.79615118974732     
   201.55186760396546        5.0748004495507120       -5.9017345564369368        548.69788574618428     
   204.50354095744942        5.0746721540691233       -5.8973200231691800        554.59520576935347     
   207.63231471214243        5.0745354417169306       -5.8925829446837517        560.48778871403726     
   210.94881489211701        5.0743897680409802       -5.8875023737401149        566.37529108777733     
   214.46430508289006        5.0742345573847762       -5.8820569985620921        572.25734808633945     
   218.19072468510950        5.0740692016524349       -5.8762254602101844        578.13357354654966     
   222.14072946346212        5.0738930589858589       -5.8699867835453405        584.00356033009496     
   226.32773452851589        5.0737054522901559       -5.8633209532732025        589.86688128336812     
   230.76595989747290        5.0735056675109043       -5.8562096746493832        595.72309095801745     
   235.47047878856731        5.0732929515243965       -5.8486373684125770        601.57172832643005     
   240.45726881312737        5.0730665094453888       -5.8405924617001936        607.41232078813027     
   245.74326623916104        5.0728255010821703       -5.8320690514286513        613.24438983955895     
   251.34642351075675        5.0725690361712568       -5.8230690340918310        619.06745887365082     
   257.28577021864817        5.0722961678981688       -5.8136048164151140        624.88106369006596     
   263.58147772901310        5.0720058840500428       -5.8037027446326563        630.68476643469864     
   270.25492768999993        5.0716970947090152       -5.7934074736635957        636.47817390836224     
   276.92837765098676        5.0713872703820444       -5.7833692471208407        642.26154315548308     
   283.60182761197359        5.0710764342273746       -5.7736455575250307        648.03518871300810     
   290.27527757296042        5.0707645802404127       -5.7642951285639201        653.79948384157206     
   296.94872753394725        5.0704516741797345       -5.7553778058412099        659.55486164741330     
   303.62217749493408        5.0701376545081605       -5.7469544270614508        665.30181607447480     
   310.29562745592091        5.0698224333523978       -5.7390866745458631        671.04090274902069     
   316.96907741690774        5.0695058974837082       -5.7318369129983289        676.77273966201903     
   323.64252737789457        5.0691879093211565       -5.7252680154197240        682.49800767743875     
   330.31597733888140        5.0688683079580210       -5.7194431799883496        688.21745085742714     
   336.98942729986823        5.0685469102111327       -5.7144257406001557        693.93187659802732     
   343.66287726085505        5.0682235116921390       -5.7102789736322039        699.64215557165949     
   350.33632722184188        5.0678978878990044       -5.7070659033013511        705.34922147496081     
   357.00977718282871        5.0675697953255003       -5.7048491078202979        711.05407058278115     
   363.68322714381554        5.0672389725859510       -5.7036905283374084        716.75776111111861     
   370.35667710480237        5.0669051415521071       -5.7036512824472494        722.46141239356587     
   377.03012706578920        5.0665680084987512       -5.7047914838475231        728.16620387741341     
   383.70357702677603        5.0662272652544100       -5.7071700695099423        733.87337394692338     
   390.37702698776286        5.0658825903534233       -5.7108446355243574        739.58421858244776     
   397.05047694874969        5.0655336501855492       -5.7158712826057947        745.30008986505356     
   403.05658191363784        5.0652158986742055       -5.7215302808304900        751.02162014588407     
   409.06268687852599        5.0648941846869926       -5.7283629788773629        756.74998312476146     
   415.06879184341415        5.0645682450214142       -5.7364068738097673        762.48638999857121     
   421.43526310619558        5.0642176812944433       -5.7463372275259106        768.23272722609715     
   427.80173436897701        5.0638617240205486       -5.7577127081454940        773.99043993424266     
   434.16820563175844        5.0635000425142866       -5.7705728070502325        779.76101274129292     
   440.53467689453987        5.0631323019816747       -5.7849551680712405        785.54596790936421     
   444.60921850272001        5.0628943778975497       -5.7947929479260978        791.34076085729032     
   448.68376011090015        5.0626537947882708       -5.8052730282937981        797.14603388558407     
   452.35084755826227        5.0624350510961271       -5.8152318785330577        802.96126576411712     
   456.01793500562439        5.0622140231873489       -5.8257238050776907        808.78698956919482     
   459.68502245298652        5.0619906455479420       -5.8367548870280590        814.62374445622288     
   463.35210990034864        5.0617648524054903       -5.8483310122257155        820.47207546844857     
   467.23922259455247        5.0615227194020749       -5.8612207845622040        826.33329625301076     
   471.35956205040856        5.0612628276691112       -5.8755871587516992        832.20888341176249     
   475.72712187361600        5.0609836011953169       -5.8916142670394827        838.10049767880196     
   480.35673528621589        5.0606832852361983       -5.9095101687379179        844.01000784753990     
   485.26412550357173        5.0603599213793453       -5.9295099297695479        849.93951777730945     
   490.46595913396897        5.0600113187386917       -5.9518790616851147        855.89139683899452     
   495.97990278219004        5.0596350206757830       -5.9769173490608614        861.86831418805536     
   501.82468304930433        5.0592282663635872       -6.0049630924476087        867.87327728050298     
   508.02015013244551        5.0587879464191374       -6.0363977908215745        873.90967507132450     
   514.58734524057513        5.0583105517360503       -6.0716512823288165        879.98132635365334     
   521.54857205519261        5.0577921145485618       -6.1112073546650354        886.09253370831834     
   528.92747247868704        5.0572281406574184       -6.1556098261935963        892.24814353451188     
   536.74910692759113        5.0566135316481597       -6.2054690854170103        898.45361261992889     
   545.04003944342946        5.0559424958386536       -6.2614690592949698        904.71508167922389     
   553.82842791021812        5.0552084466107878       -6.3243745596894421        911.03945623891332     
   563.14411968501418        5.0544038867183447       -6.3950389316446614        917.43449517055797     
   573.01875296629794        5.0535202798231538       -6.4744112457753191        923.90890641633325     
   582.89338624758170        5.0526049024938118       -6.5582350998945591        930.46714151622780     
   592.76801952886547        5.0516568032496885       -6.6464852591767904        937.11362677540455     
   602.64265281014923        5.0506750752107532       -6.7391288296588616        943.85275560506341     
   612.51728609143299        5.0496588569583150       -6.8361257933886446        950.68888139845205     
   622.39191937271676        5.0486073331236927       -6.9374295395205419        957.62631093797256     
   632.26655265400052        5.0475197347273042       -7.0429873873687727        964.66929832534129     
   642.14118593528428        5.0463953392902656       -7.1527410981400177        971.82203942348133     
   652.01581921656805        5.0452334707399071       -7.2666273726821329        979.08866679616347     
   661.89045249785181        5.0440334991296787       -7.3845783331354724        986.47324512929890     
   671.76508577913557        5.0427948401930047       -7.5065219868525244        993.97976711615138     
   681.63971906041934        5.0415169547495600       -7.6323826713653533        1001.6121497875167     
   691.51435234170310        5.0401993479813072       -7.7620814795205488        1009.3742312670373     
   701.38898562298687        5.0388415685945525       -7.8955366642103693        1017.2697679312477     
   711.26361890427063        5.0374432078831646       -8.0326640223738437        1025.3024319536214     
   721.13825218555439        5.0360038987069755       -8.1733772581650026        1033.4758092117863     
   731.01288546683816        5.0345233143983688       -8.3175883253457670        1041.7933975371320     
   740.88751874812192        5.0330011676089850       -8.4652077490926860        1050.2586052862248     
   750.76215202940568        5.0314372091076560       -8.6161449275006561        1058.8747502137255     
   760.63678531068945        5.0298312265397094       -8.7703084130563962        1067.6450586267820     
   770.51141859197321        5.0281830431571990       -8.9276061743871491        1076.5726648011691     
   780.38605187325697        5.0264925083936092       -9.0879475077616299        1085.6606123089307     
   790.85316315141779        5.0246528349167612       -9.2612173975158782        1094.9218297064465     
   801.94830110626822        5.0226490752679496       -9.4484694792439861        1104.3702991856906     
   813.70914733840971        5.0204646842312659       -9.6508306172328098        1114.0211298029233     
   826.17564434447968        5.0180813715424000       -9.8694994408547956        1123.8906292437780     
   838.64214135054965        5.0156302540102704       -10.092154932211404        1133.9827841759893     
   849.86198865601261        5.0133694168515470       -10.295642766244166        1144.2784269422334     
