 #              _____________________  _______________________             #
 #              ___  __ \__  __ \_  / / /_  /___  ____/_  ___/             #
 #              __  / / /_  /_/ /  / / /_  __/_  __/  _____ \              #
 #              _  /_/ /_  _, _// /_/ / / /_ _  /___  ____/ /              #
 #              /_____/ /_/ |_| \____/  \__/ /_____/  /____/               #
 #                                                                         #
  
 #        time                      T            heat flux [W.L-2]   in    x              directions   cumulative flux
 #-----------------------------------------------------------------------------------------------

   0.0000000000000000        5.0949000000000000        4.9672671498011827        4.9672671498011827     
   1.0000000000000000        5.0951846236159906        4.8794995841239359        9.8467667339251186     
   1.8999999999999999        5.0954275032315950        4.8067201572140954        14.653486891139213     
   2.7100000000000000        5.0956360977317825        4.7458518744367666        19.399338765575980     
   3.5200000000000000        5.0958353960806528        4.6892516098031347        24.088590375379113     
   4.3300000000000001        5.0960260442425795        4.6365842005791080        28.725174575958221     
   5.1400000000000006        5.0962086376552396        4.5875419384185010        33.312716514376724     
   5.9500000000000011        5.0963837253570459        4.5418422310487703        37.854558745425493     
   6.7600000000000016        5.0965518137643828        4.4992254703500594        42.353784215775555     
   7.5700000000000021        5.0967133701294101        4.4594530880811956        46.813237303856752     
   8.3800000000000026        5.0968688257064541        4.4223057822338889        51.235543086090644     
   9.1900000000000031        5.0970185786524045        4.3875818985843873        55.623124984675030     
   10.000000000000004        5.0971629966843270        4.3550959534334659        59.978220938108493     
   10.810000000000004        5.0973024196058221        4.3246772626399075        64.302898200748402     
   11.668600000000005        5.0974449675105635        4.2945700575900165        68.597468258338424     
   12.578716000000005        5.0975905862436948        4.2648549268534204        72.862323185191840     
   13.543438960000005        5.0977392233185048        4.2356086617518178        77.097931846943652     
   14.508161920000004        5.0978825440180993        4.2084158143372354        81.306347661280881     
   15.530768257600005        5.0980289252581406        4.1816853350785861        85.488032996359465     
   16.614730975456006        5.0981783339886970        4.1554755718682141        89.643508568227674     
   17.763731456383365        5.0983307412373176        4.1298375804369272        93.773346148664601     
   18.912731937310724        5.0984776330791677        4.1061269381961276        97.879473086860727     
   20.130672447093726        5.0986276211020458        4.0829296087208640        101.96240269558159     
   21.421689387463708        5.0987806929294841        4.0602741407591818        106.02267683634076     
   22.790167344255888        5.0989368381752804        4.0381796102056429        110.06085644654641     
   24.158645301048068        5.0990873472453249        4.0177836997332186        114.07864014627962     
   25.609231935247781        5.0992410516615063        3.9978423546848769        118.07648250096450     
   27.146853767499476        5.0993979408482364        3.9783527651074810        122.05483526607199     
   28.684475599751170        5.0995492478094695        3.9603056048191889        126.01514087089117     
   30.314354741937969        5.0997038335364362        3.9425854216601293        129.95772629255131     
   32.042026632655976        5.0998616659450580        3.9251716462325055        133.88289793878383     
   33.769698523373982        5.1000138942574766        3.9089443965099742        137.79184233529381     
   35.601030727535068        5.1001693962238628        3.8928918477876508        141.68473418308145     
   37.432362931696154        5.1003194172026252        3.8778310620794900        145.56256524516093     
   39.373575068106902        5.1004726705855541        3.8628241455918917        149.42538939075283     
   41.314787204517650        5.1006204932007932        3.8486430251120596        153.27403241586489     
   43.372472069113044        5.1007714309462342        3.8344080722304277        157.10844048809531     
   45.430156933708439        5.1009169169944037        3.8208612711027845        160.92930175919810     
   47.611302890179559        5.1010653190735713        3.8071676853251435        164.73646944452324     
   49.792448846650679        5.1012081812962045        3.7940517923080224        168.53052123683125     
   52.104463560510062        5.1013536749402615        3.7807119010322263        172.31123313786347     
   54.416478274369446        5.1014934792669626        3.7678647146359241        176.07909785249939     
   56.867213871060393        5.1016355433440914        3.7547324435665175        179.83383029606591     
   59.317949467751340        5.1017717150202984        3.7420311728901323        183.57586146895605     
   61.915729200243746        5.1019096882157857        3.7289996977736508        187.30486116672969     
   64.513508932736158        5.1020415213060764        3.7163582112455353        191.02121937797523     
   67.111288665228571        5.1021674237428911        3.7040730764591578        194.72529245443440     
   69.864935181670518        5.1022944460291546        3.6914192059056545        198.41671166034004     
   72.618581698112465        5.1024152475811864        3.6791082837968756        202.09581994413691     
   75.537447005540926        5.1025365447215094        3.6664198117209610        205.76223975585788     
   78.456312312969388        5.1026513128426432        3.6540731695624586        209.41631292542033     
   81.375177620397849        5.1027597635850510        3.6420527251048234        213.05836565052516     
   84.294042927826311        5.1028620985495685        3.6303456671113725        216.68871131763655     
   87.212908235254773        5.1029585106136137        3.6189413302212916        220.30765264785785     
   90.131773542683234        5.1030491849486648        3.6078306730491909        223.91548332090704     
   93.050638850111696        5.1031342998079694        3.5970058761173629        227.51248919702439     
   95.969504157540158        5.1032140271381614        3.5864600334356735        231.09894923046008     
   98.888369464968619        5.1032885330565811        3.5761869171277234        234.67513614758781     
   101.80723477239708        5.1033579782267058        3.5661807989203407        238.24131694650814     
   104.72610007982554        5.1034225181567319        3.5564363157988250        241.79775326230697     
   107.64496538725400        5.1034823034406731        3.5469483698359898        245.34470163214297     
   110.56383069468247        5.1035374799567927        3.5377120543759180        248.88241368651890     
   113.48269600211093        5.1035881890346753        3.5287226004472045        252.41113628696610     
   116.40156130953939        5.1036345675995642        3.5199753386043038        255.93111162557040     
   119.32042661696785        5.1036767483004208        3.5114656724657967        259.44257729803621     
   122.23929192439631        5.1037148596265070        3.5031890610434306        262.94576635907964     
   125.15815723182477        5.1037490260160849        3.4951410075947047        266.44090736667437     
   128.07702253925325        5.1037793679597669        3.4873170532692419        269.92822441994360     
   130.99588784668171        5.1038060021003728        3.4797127742067642        273.40793719415035     
   133.91475315411017        5.1038290413305649        3.4723237810551120        276.88026097520549     
   136.83361846153863        5.1038485948890626        3.4651457201477021        280.34540669535318     
   139.75248376896710        5.1038647684560239        3.4581742757384926        283.80358097109166     
   142.67134907639556        5.1038776642478192        3.4514051728750066        287.25498614396668     
   145.59021438382402        5.1038873811113827        3.4448341805823421        290.69982032454902     
   148.50907969125248        5.1038940146181089        3.4384571151274050        294.13827743967641     
   151.42794499868094        5.1038976571572432        3.4322698432125085        297.57054728288892     
   154.34681030610940        5.1038983980286492        3.4262682849738093        300.99681556786271     
   157.26567561353787        5.1038963235347925        3.4204484167272065        304.41726398458991     
   160.18454092096633        5.1038915170717756        3.4148062734114535        307.83207025800135     
   163.10340622839479        5.1038840592192720        3.4093379507126396        311.24140820871401     
   166.02227153582325        5.1038740278291677        3.4040396068717493        314.64544781558578     
   168.94113684325171        5.1038614981521233        3.3989074640529320        318.04435527963869     
   172.03513406912589        5.1038454959327275        3.3936497186587169        321.43800499829740     
   175.31477112855251        5.1038255754277131        3.3882762162828297        324.82628121458021     
   178.59440818797913        5.1038027919887075        3.3830973726664904        328.20937858724670     
   181.87404524740575        5.1037772371621353        3.3781082464183423        331.58748683366503     
   185.15368230683237        5.1037489990068723        3.3733040034131609        334.96079083707821     
   188.43331936625898        5.1037181622284642        3.3686799165751000        338.32947075365331     
   191.71295642568560        5.1036848083091879        3.3642313653504869        341.69370211900377     
   194.99259348511222        5.1036490156339012        3.3599538349099825        345.05365595391373     
   198.27223054453884        5.1036108596116776        3.3558429151320830        348.40949886904582     
   201.55186760396546        5.1035704127932480        3.3518942993860548        351.76139316843188     
   204.50354095744942        5.1035322062142727        3.3484689354029831        355.10986210383487     
   207.63231471214243        5.1034897383863518        3.3449787367981352        358.45484084063298     
   210.94881489211701        5.1034425774672565        3.3414330474470542        361.79627388808001     
   214.46430508289006        5.1033902535472002        3.3378427425394137        365.13411663061942     
   218.19072468510950        5.1033322560387875        3.3342203438425844        368.46833697446198     
   222.14072946346212        5.1032680309721297        3.3305801330518352        371.79891710751383     
   226.32773452851589        5.1031969781972810        3.3269382611330065        375.12585536864685     
   230.76595989747290        5.1031184484951764        3.3233128512722891        378.44916821991916     
   235.47047878856731        5.1030317405966681        3.3197240927485905        381.76889231266773     
   240.45726881312737        5.1029360981070573        3.3161943227592277        385.08508663542693     
   245.74326623916104        5.1028307063303942        3.3127480930062463        388.39783472843317     
   251.34642351075675        5.1027146889839816        3.3094122176376337        391.70724694607082     
   257.28577021864817        5.1025871047886513        3.3062157990478638        395.01346274511872     
   263.58147772901310        5.1024469439145932        3.3031902280087868        398.31665297312747     
   270.25492768999993        5.1022931242589200        3.3003691796339378        401.61702215276142     
   276.92837765098676        5.1021343168413695        3.2979138353591124        404.91493598812053     
   283.60182761197359        5.1019707650610275        3.2958049110676559        408.21074089918818     
   290.27527757296042        5.1018026957235794        3.2940241144633307        411.50476501365154     
   296.94872753394725        5.1016303202987014        3.2925540963983799        414.79731911004990     
   303.62217749493408        5.1014538360767672        3.2913784042523564        418.08869751430228     
   310.29562745592091        5.1012734272332967        3.2904814373089457        421.37917895161121     
   316.96907741690774        5.1010892658088887        3.2898484040633647        424.66902735567459     
   323.64252737789457        5.1009015126116921        3.2894652814177214        427.95849263709232     
   330.31597733888140        5.1007103180488782        3.2893187756816613        431.24781141277396     
   336.98942729986823        5.1005158228930068        3.2893962853345182        434.53720769810849     
   343.66287726085505        5.1003181589886806        3.2896858654795875        437.82689356358810     
   350.33632722184188        5.1001174499043804        3.2901761939362753        441.11706975752435     
   357.00977718282871        5.0999138115340008        3.2908565389103068        444.40792629643465     
   363.68322714381554        5.0997073526521657        3.2917167281815720        447.69964302461625     
   370.35667710480237        5.0994981754270841        3.2927471197616165        450.99239014437785     
   377.03012706578920        5.0992863758943523        3.2939385739578091        454.28632871833565     
   383.70357702677603        5.0990720443948581        3.2952824267990293        457.58161114513467     
   390.37702698776286        5.0988552659796280        3.2967704647598910        460.87838160989457     
   397.05047694874969        5.0986361207842519        3.2983949007428519        464.17677651063741     
   403.05658191363784        5.0984370284164306        3.2999619648935417        467.47673847553096     
   409.06268687852599        5.0982361269297511        3.3016289436289710        470.77836741915996     
   415.06879184341415        5.0980334661791709        3.3033909083861142        474.08175832754608     
   421.43526310619558        5.0978167255735043        3.3053597786790609        477.38711810622516     
   427.80173436897701        5.0975981181099650        3.3074245290230877        480.69454263524824     
   434.16820563175844        5.0973776944980731        3.3095801257137669        484.00412276096199     
   440.53467689453987        5.0971555029061042        3.3118217810433119        487.31594454200530     
   444.60921850272001        5.0970125883416220        3.3132904746576806        490.62923501666296     
   448.68376011090015        5.0968689736599995        3.3147920260136265        493.94402704267657     
   452.35084755826227        5.0967391617282942        3.3161692036752410        497.26019624635182     
   456.01793500562439        5.0966087992181492        3.3175713532690638        500.57776759962087     
   459.68502245298652        5.0964778940416355        3.3189976882737158        503.89676528789460     
   463.35210990034864        5.0963464538626733        3.3204474408431079        507.21721272873771     
   467.23922259455247        5.0962065350729002        3.3220096118413185        510.53922234057904     
   471.35956205040856        5.0960575660357694        3.3236930715880164        513.86291541216701     
   475.72712187361600        5.0958989346158043        3.3255073312064067        517.18842274337339     
   480.35673528621589        5.0957299852048923        3.3274625737054282        520.51588531707887     
   485.26412550357173        5.0955500155310016        3.3295696837647442        523.84545500084357     
   490.46595913396897        5.0953582732345541        3.3318402756154084        527.17729527645895     
   495.97990278219004        5.0951539521968670        3.3342867183353673        530.51158199479437     
   501.82468304930433        5.0949361886043274        3.3369221577908204        533.84850415258518     
   508.02015013244551        5.0947040567313131        3.3397605343572803        537.18826468694249     
   514.58734524057513        5.0944565644242266        3.3428165954538951        540.53108128239637     
   521.54857205519261        5.0941926482685318        3.3461059018387163        543.87718718423514     
   528.92747247868704        5.0939111684204450        3.3496448264888805        547.22683201072402     
   536.74910692759113        5.0936109030848922        3.3534505447879761        550.58028255551199     
   545.04003944342946        5.0932905426216877        3.3575410146230937        553.93782357013504     
   553.82842791021812        5.0929486832627164        3.3619349448672580        557.29975851500228     
   563.14411968501418        5.0925838204242968        3.3666517505684448        560.66641026557068     
   573.01875296629794        5.0921943418146123        3.3717115043493275        564.03812176992005     
   582.89338624758170        5.0918022111497194        3.3768249864241233        567.41494675634419     
   592.76801952886547        5.0914074973396959        3.3819864018211732        570.79693315816542     
   602.64265281014923        5.0910102663161716        3.3871903276102380        574.18412348577567     
   612.51728609143299        5.0906105812751719        3.3924316848851337        577.57655517066075     
   622.39191937271676        5.0902085028958677        3.3977057129706090        580.97426088363136     
   632.26655265400052        5.0898040895376280        3.4030079456613915        584.37726882929280     
   642.14118593528428        5.0893973974175273        3.4083341893188597        587.78560301861171     
   652.01581921656805        5.0889884807702632        3.4136805026669013        591.19928352127863     
   661.89045249785181        5.0885773919921773        3.4190431781443080        594.61832669942294     
   671.76508577913557        5.0881641817709840        3.4244187246699624        598.04274542409291     
   681.63971906041934        5.0877488992025688        3.4298038517123515        601.47254927580525     
   691.51435234170310        5.0873315918961408        3.4351954545388472        604.90774473034412     
   701.38898562298687        5.0869123060688448        3.4405906005509936        608.34833533089511     
   711.26361890427063        5.0864910866308817        3.4459865166083481        611.79432184750351     
   721.13825218555439        5.0860679772620143        3.4513805772615216        615.24570242476500     
   731.01288546683816        5.0856430204803216        3.4567702938122147        618.70247271857727     
   740.88751874812192        5.0852162577039079        3.4621533041369918        622.16462602271429     
   750.76215202940568        5.0847877293062806        3.4675273631991028        625.63215338591340     
   760.63678531068945        5.0843574746659517        3.4728903342102031        629.10504372012360     
   770.51141859197321        5.0839255322108485        3.4782401803736485        632.58328390049724     
   780.38605187325697        5.0834919392708660        3.4835749562624336        636.06685885675972     
   790.85316315141779        5.0830305200587329        3.4892106786235186        639.55606953538324     
   801.94830110626822        5.0825394317639967        3.4951605303233668        643.05123006570659     
   813.70914733840971        5.0820167076320386        3.5014375440752570        646.55266760978179     
   826.17564434447968        5.0814602493392655        3.5080544309127943        650.06072204069460     
   838.64214135054965        5.0809014859633228        3.5146314791183499        653.57535351981301     
   849.86198865601261        5.0803967786370405        3.5205163842509410        657.09586990406399     
