 #              _____________________  _______________________             #
 #              ___  __ \__  __ \_  / / /_  /___  ____/_  ___/             #
 #              __  / / /_  /_/ /  / / /_  __/_  __/  _____ \              #
 #              _  /_/ /_  _, _// /_/ / / /_ _  /___  ____/ /              #
 #              /_____/ /_/ |_| \____/  \__/ /_____/  /____/               #
 #                                                                         #
  
 #        time                      T            heat flux [W.L-2]   in    x              directions   cumulative flux
 #-----------------------------------------------------------------------------------------------

   0.0000000000000000        4.9545000000000003        6.9453268142139937        6.9453268142139937     
   1.0000000000000000        4.9541207102410629        7.0622924841503680        14.007619298364361     
   1.8999999999999999        4.9537970501061457        7.1592827446799312        21.166902043044292     
   2.7100000000000000        4.9535190790819188        7.2403979016913151        28.407299944735605     
   3.5200000000000000        4.9532534965027377        7.3158227146033434        35.723122659338948     
   4.3300000000000001        4.9529994408690108        7.3860026082471295        43.109125267586080     
   5.1400000000000006        4.9527561177723003        7.4513461189152448        50.560471386501327     
   5.9500000000000011        4.9525227943478534        7.5122280231646661        58.072699409665994     
   6.7600000000000016        4.9522987941971559        7.5689921991126070        65.641691608778601     
   7.5700000000000021        4.9520834927404085        7.6219542431105403        73.263645851889137     
   8.3800000000000026        4.9518763129621846        7.6714038627558647        80.935049714645004     
   9.1900000000000031        4.9516767215167192        7.7176070653839508        88.652656780028948     
   10.000000000000004        4.9514842251621287        7.7608081595617566        96.413464939590710     
   10.810000000000004        4.9512983672212778        7.8012316658744405        104.21469660546515     
   11.668600000000005        4.9511083160036158        7.8412040408319452        112.05590064629709     
   12.578716000000005        4.9509141320401113        7.8806076771147779        119.93650832341187     
   13.543438960000005        4.9507158695753786        7.9193274922519246        127.85583581566380     
   14.508161920000004        4.9505246329460864        7.9552584486751323        135.81109426433892     
   15.530768257600005        4.9503292238760777        7.9904897141590574        143.80158397849797     
   16.614730975456006        4.9501296536568029        8.0249234079763738        151.82650738647436     
   17.763731456383365        4.9499259178689101        8.0584673096486874        159.88497469612304     
   18.912731937310724        4.9497293657679844        8.0893372194858060        167.97431191560884     
   20.130672447093726        4.9495284222345193        8.1193525771405035        176.09366449274933     
   21.421689387463708        4.9493230221677953        8.1484407012915732        184.24210519404090     
   22.790167344255888        4.9491130751072498        8.1765360749886451        192.41864126902954     
   24.158645301048068        4.9489102214523157        8.2021812598561894        200.62082252888572     
   25.609231935247781        4.9487024413389715        8.2269115880476171        208.84773411693334     
   27.146853767499476        4.9484895669196911        8.2506789028909733        217.09841301982431     
   28.684475599751170        4.9482833805028195        8.2722694370428442        225.37068245686714     
   30.314354741937969        4.9480716148408979        8.2929880005425431        233.66367045740969     
   32.042026632655976        4.9478540135483353        8.3128000654084708        241.97647052281818     
   33.769698523373982        4.9476426070474480        8.3307093742542229        250.30717989707239     
   35.601030727535068        4.9474247664201298        8.3478079012410618        258.65498779831347     
   37.432362931696154        4.9472125458185774        8.3632390024895162        267.01822680080301     
   39.373575068106902        4.9469932441369737        8.3779451605783564        275.39617196138136     
   41.314787204517650        4.9467790069261071        8.3911924867808985        283.78736444816224     
   43.372472069113044        4.9465569882257325        8.4037916555872769        292.19115610374951     
   45.430156933708439        4.9463394946100667        8.4151169282008507        300.60627303195037     
   47.611302890179559        4.9461134603497161        8.4258632341569548        309.03213626610733     
   49.792448846650679        4.9458914253527881        8.4355002237693153        317.46763648987667     
   52.104463560510062        4.9456600267658928        8.4446216662742017        325.91225815615087     
   54.416478274369446        4.9454321134674597        8.4527812609716158        334.36503941712249     
   56.867213871060393        4.9451939455204759        8.4604848935394976        342.82552431066199     
   59.317949467751340        4.9449587602159379        8.4673599954613756        351.29288430612337     
   61.915729200243746        4.9447123578557699        8.4738367208749921        359.76672102699837     
   64.513508932736158        4.9444684476515466        8.4796065755579892        368.24632760255633     
   67.111288665228571        4.9442266759139848        8.4847599897811730        376.73108759233753     
   69.864935181670518        4.9439724321303062        8.4896231707333882        385.22071076307094     
   72.618581698112465        4.9437199001785137        8.4939680065904994        393.71467876966142     
   75.537447005540926        4.9434538058710338        8.4980745733980942        402.21275334305949     
   78.456312312969388        4.9431890111738648        8.5017546856543902        410.71450802871391     
   81.375177620397849        4.9429252642360408        8.5050713982471144        419.21957942696105     
   84.294042927826311        4.9426623465363502        8.5080796858060221        427.72765911276707     
   87.212908235254773        4.9424000687223790        8.5108275618556828        436.23848667462278     
   90.131773542683234        4.9421382670065146        8.5133570188483283        444.75184369347113     
   93.050638850111696        4.9418768000340272        8.5157048225063345        453.26754851597747     
   95.969504157540158        4.9416155461534936        8.5179031868196837        461.78545170279716     
   98.888369464968619        4.9413544010319654        8.5199803505389387        470.30543205333612     
   101.80723477239708        4.9410932755668453        8.5219610718284731        478.82739312516458     
   104.72610007982554        4.9408320940541444        8.5238670544766606        487.35126017964126     
   107.64496538725400        4.9405707925791313        8.5257173165010069        495.87697749614227     
   110.56383069468247        4.9403093176004074        8.5275285100231368        504.40450600616543     
   113.48269600211093        4.9400476247027250        8.5293151996830829        512.93382120584852     
   116.40156130953939        4.9397856774973272        8.5310901056350446        521.46491131148355     
   119.32042661696785        4.9395234466515303        8.5328643161423763        529.99777562762597     
   122.23929192439631        4.9392609090317148        8.5346474739927185        538.53242310161863     
   125.15815723182477        4.9389980469459998        8.5364479402870348        547.06887104190571     
   128.07702253925325        4.9387348474746382        8.5382729386081451        555.60714398051391     
   130.99588784668171        4.9384713018776782        8.5401286821528313        564.14727266266675     
   133.91475315411017        4.9382074050707878        8.5420204860046365        572.68929314867137     
   136.83361846153863        4.9379431551612294        8.5439528664440516        581.23324601511547     
   139.75248376896710        4.9376785530369638        8.5459296289132727        589.77917564402878     
   142.67134907639556        4.9374136020027279        8.5479539460436822        598.32712959007245     
   145.59021438382402        4.9371483074576554        8.5500284269542242        606.87715801702666     
   148.50907969125248        4.9368826766096712        8.5521551788782428        615.42931319590491     
   151.42794499868094        4.9366167182224405        8.5543358620395420        623.98364905794449     
   154.34681030610940        4.9363504423911735        8.5565717385667970        632.54022079651133     
   157.26567561353787        4.9360838603440023        8.5588637161555869        641.09908451266688     
   160.18454092096633        4.9358169842660429        8.5612123870768002        649.66029689974368     
   163.10340622839479        4.9355498271435669        8.5636180630768237        658.22391496282046     
   166.02227153582325        4.9352824026260649        8.5660808066240026        666.78999576944443     
   168.94113684325171        4.9350147248788359        8.5686004667741660        675.35859623621855     
   172.03513406912589        4.9347307193964278        8.5713348128047571        683.92993104902325     
   175.31477112855251        4.9344293948319615        8.5743037783141425        692.50423482733743     
   178.59440818797913        4.9341278131422213        8.5773422877896284        701.08157711512706     
   181.87404524740575        4.9338259962232556        8.5804491126543905        709.66202622778144     
   185.15368230683237        4.9335239661028840        8.5836228480423582        718.24564907582385     
   188.43331936625898        4.9332217448454330        8.5868619376441746        726.83251101346798     
   191.71295642568560        4.9329193544693775        8.5901646958478359        735.42267570931585     
   194.99259348511222        4.9326168168763296        8.5935293274872517        744.01620503680306     
   198.27223054453884        4.9323141537899895        8.5969539454661827        752.61315898226928     
   201.55186760396546        4.9320113867038851        8.6004365864906251        761.21359556875996     
   204.50354095744942        4.9317388275236009        8.6036164902832457        769.81721205904319     
   207.63231471214243        4.9314498557330184        8.6070365432822431        778.42424860232541     
   210.94881489211701        4.9311435005910074        8.6107150732672384        787.03496367559262     
   214.46430508289006        4.9308187384281847        8.6146715371211862        795.64963521271386     
   218.19072468510950        4.9304744906439995        8.6189265120489615        804.26856172476278     
   222.14072946346212        4.9301096217809341        8.6235016660764785        812.89206339083921     
   226.32773452851589        4.9297229377046170        8.6284197034998247        821.52048309433906     
   230.76595989747290        4.9293131839215167        8.6337042805385362        830.15418737487755     
   235.47047878856731        4.9288790440687116        8.6393798860645070        838.79356726094204     
   240.45726881312737        4.9284191386126990        8.6454716819829667        847.43903894292498     
   245.74326623916104        4.9279320237963296        8.6520052976413311        856.09104424056636     
   251.34642351075675        4.9274161908744842        8.6590065725986438        864.75005081316499     
   257.28577021864817        4.9268700656800517        8.6665012422119236        873.41655205537688     
   263.58147772901310        4.9262920085617399        8.6745145608761849        882.09106661625310     
   270.25492768999993        4.9256803151198394        8.6830708905007796        890.77413750675385     
   276.92837765098676        4.9250697693157921        8.6916747798906258        899.46581228664445     
   283.60182761197359        4.9244604653789610        8.7003123005030698        908.16612458714746     
   290.27527757296042        4.9238524911491206        8.7089702299249989        916.87509481707241     
   296.94872753394725        4.9232459283634942        8.7176360510310840        925.59273086810344     
   303.62217749493408        4.9226408529455350        8.7262979454346912        934.31902881353813     
   310.29562745592091        4.9220373352920843        8.7349447823573456        943.05397359589551     
   316.96907741690774        4.9214354405563334        8.7435661038511849        951.79753969974672     
   323.64252737789457        4.9208352289245916        8.7521521071760180        960.54969180692274     
   330.31597733888140        4.9202367558854174        8.7606936249795915        969.31038543190232     
   336.98942729986823        4.9196400724899929        8.7691821038518949        978.07956753575422     
   343.66287726085505        4.9190452256030426        8.7776095816992825        986.85717711745349     
   350.33632722184188        4.9184522581437493        8.7859686643406540        995.64314578179415     
   357.00977718282871        4.9178612093164089        8.7942525016361426        1004.4373982834303     
   363.68322714381554        4.9172721148306850        8.8024547634257075        1013.2398530468560     
   370.35667710480237        4.9166850071114636        8.8105696154835584        1022.0504226623395     
   377.03012706578920        4.9160999154984317        8.8185916956791033        1030.8690143580186     
   383.70357702677603        4.9155168664355342        8.8265160904896351        1039.6955304485082     
   390.37702698776286        4.9149358836505810        8.8343383119720560        1048.5298687604802     
   397.05047694874969        4.9143569883253013        8.8420542752940179        1057.3719230357742     
   403.05658191363784        4.9138376872412719        8.8489098464860962        1066.2208328822603     
   409.06268687852599        4.9133201032480676        8.8556741350130004        1075.0765070172733     
   415.06879184341415        4.9128042471511666        8.8623448277583119        1083.9388518450316     
   421.43526310619558        4.9122593930012632        8.8693082877212728        1092.8081601327528     
   427.80173436897701        4.9117165018149933        8.8761620544537738        1101.6843221872066     
   434.16820563175844        4.9111755820082577        8.8829042024582741        1110.5672263896649     
   440.53467689453987        4.9106366406326192        8.8895330330542706        1119.4567594227192     
   444.60921850272001        4.9102925301467284        8.8937286602694421        1128.3504880829887     
   448.68376011090015        4.9099492330741752        8.8978770904695832        1137.2483651734583     
   452.35084755826227        4.9096409254752675        8.9015721978849971        1146.1499373713432     
   456.01793500562439        4.9093332784166375        8.9052285970787821        1155.0551659684220     
   459.68502245298652        4.9090262925493207        8.9088460801447873        1163.9640120485667     
   463.35210990034864        4.9087199683673219        8.9124244375737796        1172.8764364861404     
   467.23922259455247        4.9083960087484062        8.9161733570455795        1181.7926098431860     
   471.35956205040856        4.9080534479403104        8.9200974079768756        1190.7127072511630     
   475.72712187361600        4.9076912735338469        8.9242007292827683        1199.6369079804458     
   480.35673528621589        4.9073084249921832        8.9284869227195198        1208.5653949031653     
   485.26412550357173        4.9069037922359531        8.9329589323085337        1217.4983538354738     
   490.46595913396897        4.9064762143004623        8.9376189087108902        1226.4359727441847     
   495.97990278219004        4.9060244780828581        8.9424680574525173        1235.3784408016372     
   501.82468304930433        4.9055473171987387        8.9475064699472231        1244.3259472715845     
   508.02015013244551        4.9050434109691814        8.9527329363639119        1253.2786802079484     
   514.58734524057513        4.9045113835608030        8.9581447395015772        1262.2368249474500     
   521.54857205519261        4.9039498033028321        8.9637374290148859        1271.2005623764649     
   528.92747247868704        4.9033571822065225        8.9695045755652085        1280.1700669520301     
   536.74910692759113        4.9027319757133769        8.9754375047443471        1289.1455044567745     
   545.04003944342946        4.9020725826995566        8.9815250109685731        1298.1270294677431     
   553.82842791021812        4.9013773457644927        8.9877530519313122        1307.1147825196745     
   563.14411968501418        4.9006445518319932        8.9941044246697892        1316.1088869443442     
   573.01875296629794        4.8998724327099890        9.0005586206542159        1325.1094455649984     
   582.89338624758170        4.8991049263932513        9.0067374774259292        1334.1161830424244     
   592.76801952886547        4.8983420016736021        9.0126443051312037        1343.1288273475557     
   602.64265281014923        4.8975836261217545        9.0182826016171855        1352.1471099491728     
   612.51728609143299        4.8968297662430045        9.0236560244362618        1361.1707659736089     
   622.39191937271676        4.8960803876184071        9.0287683655218167        1370.1995343391307     
   632.26655265400052        4.8953354550327886        9.0336235283059931        1379.2331578674366     
   642.14118593528428        4.8945949325907492        9.0382255070871516        1388.2713833745238     
   652.01581921656805        4.8938587838217966        9.0425783684396883        1397.3139617429636     
   661.89045249785181        4.8931269717755654        9.0466862345029391        1406.3606479774664     
   671.76508577913557        4.8923994591080531        9.0505532679836982        1415.4112012454502     
   681.63971906041934        4.8916762081596490        9.0541836587257212        1424.4653849041761     
   691.51435234170310        4.8909571810257635        9.0575816116953938        1433.5229665158715     
   701.38898562298687        4.8902423396206700        9.0607513362770771        1442.5837178521485     
   711.26361890427063        4.8895316457352163        9.0636970367411784        1451.6474148888897     
   721.13825218555439        4.8888250610889425        9.0664229037967310        1460.7138377926865     
   731.01288546683816        4.8881225473771215        9.0689331071116754        1469.7827708997982     
   740.88751874812192        4.8874240663131827        9.0712317887244556        1478.8540026885225     
   750.76215202940568        4.8867295796669250        9.0733230572580350        1487.9273257457805     
   760.63678531068945        4.8860390492989225        9.0752109828625969        1497.0025367286432     
   770.51141859197321        4.8853524371914432        9.0768995928148772        1506.0794363214582     
   780.38605187325697        4.8846697067439422        9.0783926484118087        1515.1578289698700     
   790.85316315141779        4.8839503278257910        9.0797604690818705        1524.2375894389520     
   801.94830110626822        4.8831925817714925        9.0809744773963477        1533.3185639163482     
   813.70914733840971        4.8823946964512768        9.0820027139605592        1542.4005666303087     
   826.17564434447968        4.8815548452329232        9.0828099216686624        1551.4833765519775     
   838.64214135054965        4.8807208296095022        9.0833414311152243        1560.5667179830928     
   849.86198865601261        4.8799748892212493        9.0836017305900594        1569.6503197136828     
