 #              _____________________  _______________________             #
 #              ___  __ \__  __ \_  / / /_  /___  ____/_  ___/             #
 #              __  / / /_  /_/ /  / / /_  __/_  __/  _____ \              #
 #              _  /_/ /_  _, _// /_/ / / /_ _  /___  ____/ /              #
 #              /_____/ /_/ |_| \____/  \__/ /_____/  /____/               #
 #                                                                         #
  
 #        time                      T            heat flux [W.L-2]   in    x              directions   cumulative flux
 #-----------------------------------------------------------------------------------------------

   0.0000000000000000        10.000000000000000       -0.0000000000000000        0.0000000000000000     
   1.0000000000000000        10.000000000000000       -3.3892888495756747E-012   3.3892888495756747E-012
   1.9540000000000002        9.9999999999999982       -3.1068481121110355E-011   3.4457769970686033E-011
   2.8641160000000001        9.9999999999999876       -1.4743406495654191E-010   1.8189183492722794E-010
   3.8288389600000006        9.9999999999999289       -6.1402616324812677E-010   7.9591799817535471E-010
   4.8514452976000007        9.9999999999996980       -2.3030217732866744E-009   3.0989397714620290E-009
   5.9354080154560007        9.9999999999988738       -7.8247381907204098E-009   1.0923677962182440E-008
   7.0844084963833609        9.9999999999961666       -2.4385933272697313E-008   3.5309611234879756E-008
   8.3023490061663630        9.9999999999879119       -7.0522627737548618E-008   1.0583223897242837E-007
   9.5933659465363448        9.9999999999642988       -1.9112764704234178E-007   2.9695988601477018E-007
   10.961843903328527        9.9999999999005187       -4.8944098907113092E-007   7.8640087508590110E-007
   12.412430537528239        9.9999999997366906       -1.1923167946300559E-006   1.9787176697159570E-006
   13.950052369779934        9.9999999993342676       -2.7784943732498277E-006   4.7572120429657847E-006
   15.579931511966731        9.9999999983846664       -6.2222519190623411E-006   1.0979463962028127E-005
   17.307603402684734        9.9999999962238135       -1.3441901501307324E-005   2.4421365463335452E-005
   19.138935606845820        9.9999999914671616       -2.8101605554976555E-005   5.2522971018312004E-005
   21.080147743256571        9.9999999813110989       -5.7005909946236701E-005   1.0952888096454871E-004
   23.137832607851966        9.9999999602312375       -1.1246241158204704E-004   2.2199129254659575E-004
   25.318978564323086        9.9999999176173056       -2.1618508036843744E-004   4.3817637291503319E-004
   27.630993278182473        9.9999998335791513       -4.0558721566369269E-004   8.4376358857872588E-004
   30.081728874873424        9.9999996716818149       -7.4368736433867884E-004   1.5874509529174047E-003
   32.679508607365833        9.9999993666446336       -1.3343395213527066E-003   2.9217904742701115E-003
   35.433155123807786        9.9999988039724101       -2.3451079314265409E-003   5.2668984056966524E-003
   38.352020431236255        9.9999977869580050       -4.0408293753490159E-003   9.3077277810456674E-003
   41.446017657110431        9.9999959843718482       -6.8317101980725362E-003   1.6139437979118203E-002
   44.725654716537058        9.9999928492983301       -1.1340626545105526E-002   2.7480064524223729E-002
   48.202069999529286        9.9999874958749011       -1.8495027265298648E-002   4.5975091789522374E-002
   51.887070199501046        9.9999785160718826       -2.9649325680545451E-002   7.5624417470067817E-002
   55.793170411471110        9.9999637131513825       -4.6743709771228402E-002  0.12236812724129623     
   59.933636636159378        9.9999397222436546       -7.2504668147941639E-002  0.19487279538923785     
   64.322530834328944        9.9999014819647982      -0.11069098125742256       0.30556377664666040     
   68.974758684388689        9.9998415148080220      -0.16638625480158700       0.47195003144824743     
   73.906120205452012        9.9997489690834822      -0.24633514849208041       0.71828517994032781     
   79.133363417779137        9.9996083726284244      -0.35931529067296408        1.0776004706132918     
   84.674241222845893        9.9993980497148716      -0.51653067258853658        1.5941311432018284     
   90.547571696216650        9.9990881589479930      -0.73200551752713672        2.3261366607289649     
   96.773301997989648        9.9986383227205984       -1.0229508837797543        3.3490875445087189     
   103.37257611786903        9.9979948389535238       -1.4100701834692686        4.7591577279779873     
   110.36780668494117        9.9970874938135488       -1.9177652807997307        6.6769230087777185     
   117.78275108603765        9.9958260293625223       -2.5742029252023610        9.2511259339800791     
   125.64259215119992        9.9940963610906000       -3.4112028427210199        12.662328776701099     
   133.97402368027193        9.9917566845678181       -4.4639140893615785        17.126242866062675     
   142.80534110108826        9.9886336551817685       -5.7702546370560670        22.896497503118741     
   152.16653756715357        9.9845188673976182       -7.3700995074552944        30.266597010574035     
   162.08940582118279        9.9791658974283433       -9.3042144951351062        39.570811505709145     
   172.60764617045376        9.9722881980142724       -11.612950932496505        51.183762438205648     
   183.75698094068099        9.9635581420085764       -14.334736016001282        65.518498454206934     
   194.90631571090822        9.9533207809015227       -17.311167770821893        82.829666225028831     
   206.72461056734909        9.9407193821152582       -20.725247130058328        103.55491335508717     
   219.25200311517639        9.9253577806992865       -24.600471297656885        128.15538465274406     
   232.53103921587336        9.9068103899895945       -28.953421281391858        157.10880593413592     
   246.60681748261214        9.8846280745967086       -33.792409715397319        190.90121564953324     
   261.52714244535525        9.8583456729690990       -39.116353846066708        230.01756949559996     
   277.34268690586293        9.8274909877191128       -44.913967582695989        274.93153707829595     
   294.10716403400107        9.7915949462173160       -51.163344353976903        326.09488143227287     
   311.87750978982751        9.7502023968726235       -57.832083510936428        383.92696494320933     
   330.71407629100355        9.7028829798988347       -64.877930819951501        448.80489576316086     
   350.68083678225014        9.6492415756558412       -72.249834099936137        521.05472986309701     
   371.84560290297151        9.5889276157773420       -79.889512097373881        600.94424196047089     
   394.28025499093616        9.5216415700896029       -87.734113043156398        688.67835500362730     
   418.06098620417873        9.4471338825221665       -95.721768602412581        784.40012360603987     
   443.26856129021581        9.3651974867501622       -103.79633090331308        888.19645450935298     
   469.98859088141512        9.2756612673009435       -111.90759038114868        1000.1040448905017     
   498.31182224808640        9.1783908355844872       -120.00760119911708        1120.1116460896187     
   528.33444749675800        9.0732992009411610       -128.04536040150410        1248.1570064911227     
   560.15843026034986        8.9603585212891499       -135.96589123856199        1384.1228977296846     
   593.89185198975724        8.8396127057789826       -143.70975422188201        1527.8326519515667     
   629.64927902292902        8.7111875709240465       -151.21430226180328        1679.0469542133701     
   667.55215167809115        8.5752705671645266       -158.42762294716545        1837.4745771605355     
   707.72919669256305        8.4320666877314725       -165.32034336408165        2002.7949205246173     
   750.31686440790327        8.2817216073970847       -171.90073394632898        2174.6956544709465     
   795.45979218616390        8.1243104938247299       -178.19050816285292        2352.8861626337994     
   843.31129563112017        7.9598170125631356       -184.22562691664743        2537.1117895504467     
   894.03388928277377        7.7882148359756673       -190.01743596909660        2727.1292255195431     
   947.79983855352657        7.6096124450006641       -195.52468501512590        2922.6539105346692     
   1004.7917447805246        7.4241508672884606       -200.73136195855542        3123.3852724932244     
   1065.2031653811425        7.2320950947589644       -205.59343672421420        3328.9787092174388     
   1129.2392712177975        7.0339455406671787       -210.02822517998405        3539.0069343974228     
   1197.1175434046518        6.8301505817089261       -214.03166794174516        3753.0386023391679     
   1269.0685119227173        6.6211477102411713       -217.60119464006408        3970.6397969792320     
   1345.3365385518669        6.4075731699513447       -220.68166447909783        4191.3214614583294     
   1426.1806467787653        6.1899962891709679       -223.28149591687261        4414.6029573752021     
   1511.8754014992776        5.9680502404431124       -225.64433315424941        4640.2472905294517     
   1602.7118415030207        5.7416219643418023       -227.77144136479657        4868.0187318942480     
   1693.5482815067637        5.5236118925014086       -229.50217088720697        5097.5209027814553     
   1789.8349079107313        5.3019301985324745       -230.84248798502762        5328.3633907664826     
   1891.8987318989371        5.0765741061358653       -231.93345650611192        5560.2968472725943     
   2000.0863853264352        4.8488673107736204       -232.51162075939843        5792.8084680319926     
   2114.7652979595832        4.6185429576047419       -232.86205541045720        6025.6705234424498     
   2236.3249453507201        4.3870284526795968       -232.69737929895842        6258.3679027414082     
   2365.1781715853253        4.1543864145689362       -232.23519677175869        6490.6030995131669     
   2501.7625913940069        3.9180754925188328       -232.02292827160883        6722.6260277847759     
   2646.5420763912093        3.6806447047454327       -231.28688751572378        6953.9129153004997     
   2800.0083304882437        3.4408604259559912       -230.54419318873101        7184.4571084892304     
   2962.6825598311002        3.2022886200373493       -229.07315002810000        7413.5302585173304     
   3135.1172429345279        2.9650104255831562       -227.28095101176240        7640.8112095290926     
   3317.8980070241614        2.7290848506565970       -225.24366946800194        7866.0548789970944     
   3511.6456169591729        2.4896295475109476       -223.77259366321837        8089.8274726603131     
   3705.3932268941844        2.2669337401093612       -221.36928406615445        8311.1967567264674     
   3905.3932268941844        2.0516536375179197       -218.88083024055845        8530.0775869670251     
   4105.3932268941844        1.8470160044045110       -216.73472857276133        8746.8123155397861     
   4305.3932268941844        1.6497656910841159       -215.04022108875336        8961.8525366285394     
   4505.3932268941844        1.4652444417555661       -212.62107684564475        9174.4736134741834     
   4705.3932268941844        1.2915377535296562       -210.17179730168033        9384.6454107758636     
   4905.3932268941844        1.1237033528498073       -208.30718311144011        9592.9525938873030     
   5105.3932268941844       0.96570530146259048       -205.96264151667981        9798.9152354039834     
   5305.3932268941844       0.80815480543686080       -204.84635583421630        10003.761591238199     
   5505.3932268941844       0.66520472454470458       -201.97382452341256        10205.735415761612     
   5705.3932268941844       0.52621147935881707       -200.11139421100785        10405.846809972620     
   5905.3932268941844       0.39027185936102549       -198.23862488801379        10604.085434860634     
   6105.3932268941844       0.26854062001371948       -195.03776077483801        10799.123195635471     
   6305.3932268941844       0.14093921459163128       -191.54452802742290        10990.667723662895     
   6505.3932268941844        2.5724638285064549E-002  -187.92060450087263        11178.588328163767     
   6705.3932268941844       -9.2474234097601693E-002  -182.74644273185049        11361.334770895617     
   6905.3932268941844      -0.20827647039517960       -176.07704840052793        11537.411819296145     
   7105.3932268941844      -0.30769153298985630       -170.56030028137894        11707.972119577524     
   7305.3932268941844      -0.41130554396962071       -163.44368311064855        11871.415802688172     
   7505.3932268941844      -0.50372832570574910       -157.63867931722436        12029.054482005396     
   7705.3932268941844      -0.59211845686118114       -151.69023648745025        12180.744718492846     
   7905.3932268941844      -0.67624315844047511       -145.74364139685014        12326.488359889696     
   8105.3932268941844      -0.75357763436546077       -140.75336723569319        12467.241727125389     
   8305.3932268941844      -0.82467614376120801       -136.64958317978875        12603.891310305178     
   8505.3932268941844      -0.89850118201571283       -131.48368437884307        12735.374994684022     
   8705.3932268941844      -0.96363024369656203       -127.01121578783699        12862.386210471859     
   8905.3932268941844       -1.0246150117160124       -123.11731744096194        12985.503527912821     
   9105.3932268941844       -1.0834378584532969       -119.28062496796345        13104.784152880784     
   9305.3932268941844       -1.1380516347412697       -116.13071704228548        13220.914869923070     
   9505.3932268941844       -1.1884492186263804       -113.57680467907917        13334.491674602150     
   9705.3932268941844       -1.2384260490684817       -111.01293592924127        13445.504610531390     
   9905.3932268941844       -1.2848242005677628       -108.79125493654873        13554.295865467939     
   10105.393226894184       -1.3304236826517144       -107.21846062551334        13661.514326093453     
   10305.393226894184       -1.3753835917225157       -105.79236440226423        13767.306690495718     
   10505.393226894184       -1.4184097574604257       -104.74216230522035        13872.048852800937     
   10705.393226894184       -1.4575030958162003       -103.80375683099078        13975.852609631927     
   10905.393226894184       -1.4957080647648504       -103.44743090864169        14079.300040540569     
   11105.393226894184       -1.5323444673670230       -103.42777794883099        14182.727818489400     
   11305.393226894184       -1.5675626247158405       -104.01783488019016        14286.745653369591     
   11505.393226894184       -1.6032191796440951       -105.24140016399181        14391.987053533583     
   11705.393226894184       -1.6376691811372432       -106.45742937257619        14498.444482906159     
   11905.393226894184       -1.6710287988525043       -108.14082329406769        14606.585306200228     
   12105.393226894184       -1.7039602465998480       -110.34130927118362        14716.926615471411     
   12305.393226894184       -1.7373989325355943       -113.22599767614916        14830.152613147560     
   12505.393226894184       -1.7705374910640419       -116.69321074738532        14946.845823894946     
   12705.393226894184       -1.8032869882195617       -120.62209825916619        15067.467922154112     
   12905.393226894184       -1.8361943989435741       -125.35346700348661        15192.821389157598     
   13105.393226894184       -1.8672129824489194       -129.41076666439295        15322.232155821990     
   13305.393226894184       -1.8981310120046251       -134.62606699209817        15456.858222814088     
   13505.393226894184       -1.9299715770223078       -141.38445833169217        15598.242681145779     
   13705.393226894184       -1.9635498090079002       -148.03837711171687        15746.281058257497     
   13905.393226894184       -1.9961360277222657       -152.48283324018556        15898.763891497681     
   14105.393226894184       -2.0286035498667583       -157.88189880173945        16056.645790299421     
   14305.393226894184       -2.0634995589327567       -164.09135902552555        16220.737149324947     
   14505.393226894184       -2.0986150765874720       -168.36535687710176        16389.102506202049     
   14705.393226894184       -2.1352593215198721       -172.28948825693502        16561.391994458983     
   14905.393226894184       -2.1729268906268326       -175.92434417139245        16737.316338630375     
   15105.393226894184       -2.2113408789222446       -179.19675095212358        16916.513089582499     
   15305.393226894184       -2.2522639230764949       -182.42630673160866        17098.939396314108     
   15505.393226894184       -2.2890808011273767       -185.47370233792870        17284.413098652036     
   15705.393226894184       -2.3290690399142822       -188.39231622816197        17472.805414880197     
   15905.393226894184       -2.3729815604519584       -190.45949837915379        17663.264913259351     
   16105.393226894184       -2.4178407354383076       -192.28066883688427        17855.545582096234     
   16305.393226894184       -2.4625671590968161       -193.97763768916411        18049.523219785398     
   16505.393226894186       -2.5002130531612421       -197.16073526376650        18246.683955049164     
   16705.393226894186       -2.5433499958100358       -198.40696945304364        18445.090924502209     
   16905.393226894186       -2.5874507751213898       -191.75413056680853        18636.845055069018     
   17105.393226894186       -2.6262142233447685       -193.19082018423711        18830.035875253256     
   17305.393226894186       -2.6652878477908413       -194.10959198082352        19024.145467234081     
   17505.393226894186       -2.7043952565028873       -194.73804135342525        19218.883508587507     
   17705.393226894186       -2.7445785320464391       -194.90904075730174        19413.792549344809     
   17905.393226894186       -2.7848697125348192       -194.96210537929906        19608.754654724107     
   18105.393226894186       -2.8200283751882145       -195.87015153451358        19804.624806258620     
   18305.393226894186       -2.8552981542871354       -196.29999342039073        20000.924799679011     
   18505.393226894186       -2.8912703869706231       -196.35328444301092        20197.278084122023     
   18705.393226894186       -2.9277065470458710       -196.19914257495347        20393.477226696978     
   18905.393226894186       -2.9642763521898461       -195.94789177160067        20589.425118468578     
   19105.393226894186       -3.0007163546734801       -195.65506595245088        20785.080184421029     
   19305.393226894186       -3.0370094928609013       -195.33006579903090        20980.410250220059     
   19505.393226894186       -3.0728920861908922       -194.99611384012036        21175.406364060178     
   19705.393226894186       -3.1085734665145117       -194.61043670459523        21370.016800764774     
   19905.393226894186       -3.1424338765145543       -194.44280350358096        21564.459604268355     
   20105.393226894186       -3.1753051544008724       -194.26246565824198        21758.722069926596     
   20305.393226894186       -3.2076000924715786       -194.00805732311628        21952.730127249713     
   20505.393226894186       -3.2400134035158747       -193.60013613066110        22146.330263380376     
