 #              _____________________  _______________________             #
 #              ___  __ \__  __ \_  / / /_  /___  ____/_  ___/             #
 #              __  / / /_  /_/ /  / / /_  __/_  __/  _____ \              #
 #              _  /_/ /_  _, _// /_/ / / /_ _  /___  ____/ /              #
 #              /_____/ /_/ |_| \____/  \__/ /_____/  /____/               #
 #                                                                         #
  
 #        time                      T            heat flux [W.L-2]   in    x              directions   cumulative flux
 #-----------------------------------------------------------------------------------------------

   0.0000000000000000        10.000000000000000       -0.0000000000000000        0.0000000000000000     
   1.0000000000000000        9.4274556195231192       -176.56559877024213        176.56559877024213     
   1.9540000000000002        8.9268228575785731       -326.21858678896587        502.78418555920803     
   2.8641160000000001        8.4866162678494277       -453.71419706435529        956.49838262356332     
   3.8288389600000006        8.0564561600989109       -574.01002658813536        1530.5084092116986     
   4.8514452976000007        7.6372509786700205       -686.74125638408759        2217.2496655957862     
   5.9354080154560007        7.2297753673621896       -791.61925239327184        3008.8689179890580     
   7.0844084963833609        6.8346566279220111       -888.43734976985286        3897.3062677589110     
   8.3023490061663630        6.4523644068963950       -977.07484324310008        4874.3811110020106     
   9.5933659465363448        6.0832041517021880       -1057.4989375572127        5931.8800485592237     
   10.961843903328527        5.7273147559138806       -1129.7644800332050        7061.6445285924292     
   12.412430537528239        5.3846706560514592       -1194.0113830824525        8255.6559116748813     
   13.950052369779934        5.0550884533380165       -1250.4597446559396        9506.1156563308214     
   15.579931511966731        4.7382379232733456       -1299.4027839860960        10805.518440316917     
   17.307603402684734        4.4336570559762167       -1341.1978218198244        12146.716262136741     
   19.138935606845820        4.1407705562119057       -1376.2556406950616        13522.971902831803     
   21.080147743256571        3.8589110404451539       -1405.0286531292143        14928.000555961018     
   23.137832607851966        3.5873420157200790       -1427.9983755297092        16355.998931490727     
   25.318978564323086        3.3252816264549843       -1445.6627460075506        17801.661677498276     
   27.630993278182473        3.0719261215088207       -1458.5238299571190        19260.185507455393     
   30.081728874873424        2.8264720309902649       -1467.0764260429876        20727.261933498379     
   32.679508607365833        2.5881361495929305       -1471.7980183520322        22199.059951850410     
   35.433155123807786        2.3561725930797670       -1473.1404228059414        23672.200374656350     
   38.352020431236255        2.1298864125782959       -1471.5233557033346        25143.723730359685     
   41.446017657110431        1.9086434979119160       -1467.3300202463611        26611.053750606046     
   44.725654716537058        1.6918767534157566       -1460.9046752350794        28071.958425841127     
   48.202069999529286        1.4790887642533619       -1452.5520308045657        29524.510456645694     
   51.887070199501046        1.2698513673284211       -1442.5382195274490        30967.048676173144     
   55.793170411471110        1.0638026827699221       -1431.0930248528773        32398.141701026023     
   59.933636636159378       0.86064224100126863       -1418.4130163036677        33816.554717329687     
   64.322530834328944       0.66012485580740066       -1404.6652415596900        35221.219958889378     
   68.974758684388689       0.46205385230276663       -1389.9911551582718        36611.211114047648     
   73.906120205452012       0.26627417294902822       -1374.5105147807938        37985.721628828440     
   79.133363417779137        7.2665771042846883E-002  -1358.3250401071100        39344.046668935553     
   84.674241222845893      -0.11886242346586373       -1341.6438823444867        40685.690551280037     
   90.547571696216650      -0.30837780089735345       -1324.4262566040700        42010.116807884107     
   96.773301997989648      -0.49592857005393887       -1306.8611872424656        43316.977995126574     
   103.37257611786903      -0.66192842254712159       -1283.8486051546931        44600.826600281267     
   110.36780668494117      -0.82845017450889602       -1262.2654131896313        45863.092013470901     
   117.78275108603765      -0.99316543011189440       -1241.5438009345733        47104.635814405476     
   125.64259215119992       -1.1517963219761234       -1220.7830303658941        48325.418844771368     
   133.97402368027193       -1.2991118693147368       -1198.8651805494053        49524.284025320776     
   142.80534110108826       -1.4308862802739080       -1174.7187580141863        50699.002783334960     
   152.16653756715357       -1.5458573064118677       -1147.8138793956944        51846.816662730656     
   162.08940582118279       -1.6459323974359057       -1118.4779548749400        52965.294617605599     
   172.60764617045376       -1.6839358406627940       -1068.7204644834942        54034.015082089092     
   183.75698094068099       -1.7646050107334514       -1036.1118720784880        55070.126954167579     
   194.90631571090822       -1.7971644751613427       -992.23672768476843        56062.363681852345     
   206.72461056734909       -1.8372835896104955       -954.44493294301969        57016.808614795365     
   219.25200311517639       -1.8828050689317244       -921.14326867646150        57937.951883471826     
   232.53103921587336       -1.9328368097867983       -891.61881890077552        58829.570702372599     
   246.60681748261214       -1.9871770801346003       -865.70535827751428        59695.276060650111     
   261.52714244535525       -2.0460626733165017       -843.62927216298488        60538.905332813098     
   277.34268690586293       -2.1099501698885206       -825.85450326217494        61364.759836075275     
   294.10716403400107       -2.1791894151618747       -812.82625861115446        62177.586094686427     
   311.87750978982751       -2.2509227141038295       -800.59167364089706        62978.177768327325     
   330.71407629100355       -2.3260884732834475       -803.38241066133980        63781.560178988664     
   350.68083678225014       -2.4031715878353848       -811.89830903673737        64593.458488025404     
   371.84560290297151       -2.4802244502075039       -816.75686834170369        65410.215356367109     
   394.28025499093616       -2.5876050420501326       -794.22222078483844        66204.437577151941     
   418.06098620417873       -2.7233039647572839       -790.68620805109526        66995.123785203032     
   443.26856129021581       -2.7845872585714897       -768.10848744488703        67763.232272647918     
   469.98859088141512       -2.8549953479922952       -759.25128254309971        68522.483555191022     
   498.31182224808640       -2.9339500846597284       -759.46409298179162        69281.947648172820     
   528.33444749675800       -3.0240075893430847       -771.85952273348721        70053.807170906308     
   560.15843026034986       -3.1233600677187918       -791.47908415514200        70845.286255061452     
   593.89185198975724       -3.2280599883747714       -815.51766211816289        71660.803917179612     
   629.64927902292902       -3.3345970737657264       -838.55835884757448        72499.362276027183     
   667.55215167809115       -3.5079625520548703       -866.26369052366351        73365.625966550841     
   707.72919669256305       -3.6194984245937563       -874.24150310873438        74239.867469659570     
   750.31686440790327       -3.7413935225208168       -887.27152765243159        75127.138997311995     
   795.45979218616390       -3.8627599612125683       -899.23919932697027        76026.378196638965     
   843.31129563112017       -3.9943591275154517       -917.61851758223190        76943.996714221197     
   894.03388928277377       -4.1241543209835161       -935.13806718457238        77879.134781405766     
   947.79983855352657       -4.2572021173444261       -945.19197767882656        78824.326759084594     
   1004.7917447805246       -4.3838773207202077       -938.70828415555479        79763.035043240146     
   1065.2031653811425       -4.4776184898679272       -930.97896104463518        80694.014004284778     
   1129.2392712177975       -4.5736662253916904       -913.77935283625391        81607.793357121031     
   1197.1175434046518       -4.6871173286551446       -890.67152810177549        82498.464885222813     
   1269.0685119227173       -4.7865441151464223       -871.93030013718715        83370.395185360001     
   1345.3365385518669       -4.8889137587097622       -852.14693762786919        84222.542122987870     
   1426.1806467787653       -5.0300018383527139       -826.17643861555075        85048.718561603426     
   1511.8754014992776       -5.1529402729933222       -802.84047293342326        85851.559034536855     
   1602.7118415030207       -5.2788752143979920       -781.17446900842037        86632.733503545271     
   1693.5482815067637       -5.3937195147199155       -758.67641942854164        87391.409922973806     
   1789.8349079107313       -5.5150102985900418       -739.05423876119676        88130.464161734999     
   1891.8987318989371       -5.6248425680245013       -721.09950208282999        88851.563663817826     
   2000.0863853264352       -5.7200081530773295       -704.50369008588245        89556.067353903709     
   2114.7652979595832       -5.8186406099286270       -688.81812335855125        90244.885477262258     
   2236.3249453507201       -5.9059343667660507       -673.43103494385491        90918.316512206118     
   2365.1781715853253       -6.0144985140948855       -658.24438989219038        91576.560902098310     
   2501.7625913940069       -6.1398838561905356       -639.63302822721448        92216.193930325520     
   2646.5420763912093       -6.2348608072438445       -621.03621332770638        92837.230143653229     
   2800.0083304882437       -6.3360498088293964       -605.45296269668609        93442.683106349912     
   2962.6825598311002       -6.4275840663910921       -589.53101715624246        94032.214123506157     
   3135.1172429345279       -6.5154411808084518       -574.93421706919776        94607.148340575353     
   3317.8980070241614       -6.5938437586970631       -561.10170337967020        95168.250043955020     
   3511.6456169591729       -6.6924696311164462       -547.79753733109089        95716.047581286111     
   3705.3932268941844       -6.7668400942710951       -532.52204384931804        96248.569625135424     
   3905.3932268941844       -6.8462995656074348       -520.29410050729962        96768.863725642717     
   4105.3932268941844       -6.9160157824417325       -507.77963129887382        97276.643356941597     
   4305.3932268941844       -6.9842339011991417       -496.46544100649106        97773.108797948094     
   4505.3932268941844       -7.0462391983426880       -485.55543902669569        98258.664236974786     
   4705.3932268941844       -7.1021087847604889       -475.67872593174940        98734.342962906536     
   4905.3932268941844       -7.1600652316207682       -466.57164084227725        99200.914603748810     
   5105.3932268941844       -7.2177128026545176       -457.14760121585562        99658.062204964663     
   5305.3932268941844       -7.2661207211907790       -448.05967530042608        100106.12188026508     
   5505.3932268941844       -7.3133743178468675       -440.26907875240153        100546.39095901749     
   5705.3932268941844       -7.3568571603836208       -432.71568976985111        100979.10664878733     
   5905.3932268941844       -7.3986194280060342       -425.71249338328050        101404.81914217061     
   6105.3932268941844       -7.4384866463119828       -419.00318606871826        101823.82232823933     
   6305.3932268941844       -7.4771403881363243       -412.57731234206642        102236.39964058140     
   6505.3932268941844       -7.5157534936567867       -406.31608891989862        102642.71572950129     
   6705.3932268941844       -7.5536386001271953       -400.07834259017426        103042.79407209146     
   6905.3932268941844       -7.5876586665809587       -394.05200365329523        103436.84607574476     
   7105.3932268941844       -7.6200223351136120       -388.60133701323571        103825.44741275800     
   7305.3932268941844       -7.6502733692776257       -383.42114680617954        104208.86855956419     
   7505.3932268941844       -7.6805261307461041       -378.52427186996408        104587.39283143415     
   7705.3932268941844       -7.7094693137020602       -373.66041636396301        104961.05324779810     
   7905.3932268941844       -7.7381053409362011       -368.98701815970355        105330.04026595781     
   8105.3932268941844       -7.7656464094268181       -364.38238700000932        105694.42265295782     
   8305.3932268941844       -7.7927395343235712       -359.93882332632614        106054.36147628415     
   8505.3932268941844       -7.8190251738458487       -355.57760069089113        106409.93907697503     
   8705.3932268941844       -7.8435090134241134       -351.37560175515119        106761.31467873018     
   8905.3932268941844       -7.8667589864129219       -347.45352242114029        107108.76820115132     
   9105.3932268941844       -7.8887677623371619       -343.72821193651640        107452.49641308784     
   9305.3932268941844       -7.9104707644834207       -340.17737588840106        107792.67378897624     
   9505.3932268941844       -7.9314892421701870       -336.68475521740595        108129.35854419364     
   9705.3932268941844       -7.9519899681617252       -333.30086655997502        108462.65941075362     
   9905.3932268941844       -7.9718571424898261       -330.00352968883658        108792.66294044246     
   10105.393226894184       -7.9914087550123742       -326.79972502601646        109119.46266546848     
   10305.393226894184       -8.0106445721973820       -323.64656099743593        109443.10922646592     
   10505.393226894184       -8.0295732446574100       -320.54450720042871        109763.65373366635     
   10705.393226894184       -8.0476194798098479       -317.50866869686496        110081.16240236322     
   10905.393226894184       -8.0649470480702661       -314.61274658000713        110395.77514894323     
   11105.393226894184       -8.0815186741647906       -311.83310173330199        110707.60825067652     
   11305.393226894184       -8.0977513234058023       -309.16396553123474        111016.77221620776     
   11505.393226894184       -8.1138009118143497       -306.54450880283849        111323.31672501059     
   11705.393226894184       -8.1295686562013145       -303.95743624981731        111627.27416126041     
   11905.393226894184       -8.1451366724653216       -301.41483456037457        111928.68899582079     
   12105.393226894184       -8.1603158652805696       -298.90892035038388        112227.59791617117     
   12305.393226894184       -8.1751839869845355       -296.46458354754486        112524.06249971871     
   12505.393226894184       -8.1897109957794108       -294.07115162385350        112818.13365134256     
   12705.393226894184       -8.2039426564673317       -291.73161295390304        113109.86526429646     
   12905.393226894184       -8.2180001601192103       -289.43661227936366        113399.30187657582     
   13105.393226894184       -8.2315337067030558       -287.17908238124471        113686.48095895707     
   13305.393226894184       -8.2446027828335584       -285.00590653258979        113971.48686548966     
   13505.393226894184       -8.2572582268239909       -282.90592040643872        114254.39278589610     
   13705.393226894184       -8.2696843279771421       -280.86729143357087        114535.26007732967     
   13905.393226894184       -8.2818460102923463       -278.86666464650807        114814.12674197619     
   14105.393226894184       -8.2937775568233469       -276.90824896084479        115091.03499093703     
   14305.393226894184       -8.3055717525533055       -274.98425757607009        115366.01924851310     
   14505.393226894184       -8.3171559452913755       -273.08417193609932        115639.10342044920     
   14705.393226894184       -8.3285317894051030       -271.21856368879190        115910.32198413799     
   14905.393226894184       -8.3396686399806743       -269.38737244330258        116179.70935658130     
   15105.393226894184       -8.3505850922513964       -267.59430400663467        116447.30366058793     
   15305.393226894184       -8.3613588947098005       -265.83476050520471        116713.13842109314     
   15505.393226894184       -8.3718376048448366       -264.10224394548021        116977.24066503863     
   15705.393226894184       -8.3820268627295675       -262.41790817675633        117239.65857321538     
   15905.393226894184       -8.3919350552765000       -260.77990263418280        117500.43847584956     
   16105.393226894184       -8.4016536251257392       -259.18463860181578        117759.62311445137     
   16305.393226894184       -8.4112341539631927       -257.61855365119123        118017.24166810256     
   16505.393226894186       -8.4206706140542451       -256.07490954507301        118273.31657764764     
   16705.393226894186       -8.4299912068273848       -254.55398088778787        118527.87055853543     
   16905.393226894186       -8.4392223527156975       -253.05083461773435        118780.92139315317     
   17105.393226894186       -8.4483198480001498       -251.56337082463381        119032.48476397780     
   17305.393226894186       -8.4572582510745669       -250.09847937292588        119282.58324335073     
   17505.393226894186       -8.4660151105975849       -248.65987407260025        119531.24311742334     
   17705.393226894186       -8.4746206196823923       -247.24978122668045        119778.49289865002     
   17905.393226894186       -8.4831024561279946       -245.86331923817957        120024.35621788820     
   18105.393226894186       -8.4913972343518740       -244.49855847482701        120268.85477636302     
   18305.393226894186       -8.4994893120491763       -243.16473894094588        120512.01951530397     
   18505.393226894186       -8.5073793048404305       -241.86355443485093        120753.88306973882     
   18705.393226894186       -8.5151109631603639       -240.59375420193584        120994.47682394076     
   18905.393226894186       -8.5227204481325174       -239.34850626282264        121233.82533020357     
   19105.393226894186       -8.5302398645659672       -238.12208497931405        121471.94741518289     
   19305.393226894186       -8.5376884373558948       -236.90968140676884        121708.85709658967     
   19505.393226894186       -8.5450735145237271       -235.70853561879721        121944.56563220847     
   19705.393226894186       -8.5523996040840249       -234.51751055089724        122179.08314275937     
   19905.393226894186       -8.5596321020872885       -233.33698274500642        122412.42012550437     
   20105.393226894186       -8.5667477850691078       -232.17234775558799        122644.59247325997     
   20305.393226894186       -8.5737274511685708       -231.02710462402487        122875.61957788399     
   20505.393226894186       -8.5805870150435517       -229.90340500995117        123105.52298289395     
