 #              _____________________  _______________________             #
 #              ___  __ \__  __ \_  / / /_  /___  ____/_  ___/             #
 #              __  / / /_  /_/ /  / / /_  __/_  __/  _____ \              #
 #              _  /_/ /_  _, _// /_/ / / /_ _  /___  ____/ /              #
 #              /_____/ /_/ |_| \____/  \__/ /_____/  /____/               #
 #                                                                         #
  
 #        time                      T            heat flux [W.L-2]   in    x              directions   cumulative flux
 #-----------------------------------------------------------------------------------------------

   0.0000000000000000        5.3307000000000002       -3.3483658345087846        3.3483658345087846     
   1.0000000000000000        5.3312589503681558       -3.4943219337870404        6.8426877682958249     
   1.9540000000000002        5.3317634300692323       -3.6221823725054101        10.464870140801235     
   2.8641160000000001        5.3322205598675518       -3.7347000577406178        14.199570198541853     
   3.8288389600000006        5.3326801874669219       -3.8443048338498595        18.043875032391711     
   4.8514452976000007        5.3331417495411051       -3.9506629405513487        21.994537972943061     
   5.9354080154560007        5.3336047311411230       -4.0534685043375420        26.048006477280602     
   7.0844084963833609        5.3340686766734891       -4.1524486711437802        30.200455148424382     
   8.3023490061663630        5.3345332000423600       -4.2473682409792701        34.447823389403652     
   9.5933659465363448        5.3349979935684377       -4.3380336272654940        38.785857016669148     
   10.961843903328527        5.3354628353038303       -4.4242959751629467        43.210152991832096     
   12.412430537528239        5.3359275943865248       -4.5060532959907080        47.716206287822807     
   13.950052369779934        5.3363922341210444       -4.5832515103687008        52.299457798191511     
   15.579931511966731        5.3368568125313303       -4.6558843420829685        56.955342140274482     
   17.307603402684734        5.3373214802041744       -4.7239920692843667        61.679334209558846     
   19.138935606845820        5.3377864753190130       -4.7876592210060007        66.466993430564841     
   21.080147743256571        5.3382521158313887       -4.8470114073818307        71.314004837946669     
   23.137832607851966        5.3387187888264727       -4.9022115944186213        76.216216432365286     
   25.318978564323086        5.3391869370629284       -4.9534562830392641        81.169672715404545     
   27.630993278182473        5.3396570426558254       -5.0009722326692030        86.170644948073743     
   30.081728874873424        5.3401296076603799       -5.0450145878914148        91.215659535965159     
   32.679508607365833        5.3406051309660425       -5.0858675278878032        96.301527063852959     
   35.433155123807786        5.3410840803310311       -5.1238488649841090        101.42537592883707     
   38.352020431236255        5.3415668575087336       -5.1593203669047636        106.58469629574184     
   41.446017657110431        5.3420537531598624       -5.1927059531357918        111.77740224887762     
   44.725654716537058        5.3425448865280325       -5.2245202896656364        117.00192253854325     
   48.202069999529286        5.3430401226139992       -5.2554106287975184        122.25733316734078     
   51.887070199501046        5.3435389567787155       -5.2862149391230444        127.54354810646382     
   55.793170411471110        5.3440403533580545       -5.3180393495114133        132.86158745597524     
   59.933636636159378        5.3445425210903439       -5.3523575766230831        138.21394503259833     
   64.322530834328944        5.3450426042045667       -5.3911341239533632        143.60507915655168     
   68.974758684388689        5.3455362643345108       -5.4369714920838472        149.04205064863552     
   73.626986534448434        5.3459922987296595       -5.4895601863845060        154.53161083502002     
   78.558348055511757        5.3464309089151563       -5.5552628460168219        160.08687368103685     
   83.785591267838882        5.3468413184049952       -5.6388618238963888        165.72573550493323     
   89.326469072905638        5.3472087829230146       -5.7463226440239206        171.47205814895716     
   95.199799546276395        5.3475134639853756       -5.8849475431179403        177.35700569207509     
   101.42552984804939        5.3477291088375116       -6.0634950029052845        183.42050069498038     
   108.02480396792878        5.3478215543139687       -6.2922441750193743        189.71274486999974     
   114.62407808780816        5.3477615177843738       -6.5637953910917393        196.27654026109147     
   121.61930865488030        5.3475066895699248       -6.9027833368627247        203.17932359795418     
   129.03425305597676        5.3469983200276916       -7.3220643355476138        210.50138793350180     
   136.89409412113903        5.3461649501921071       -7.8354327227886866        218.33682065629048     
   145.22552565021104        5.3449210502791198       -8.4572930892653524        226.79411374555585     
   154.05684307102737        5.3431659031069518       -9.2022453004755373        235.99635904603139     
   163.41803953709268        5.3407828318862816       -10.084604596136259        246.08096364216766     
   173.34090779112191        5.3376388500531293       -11.117893457689123        257.19885709985681     
   183.85914814039288        5.3335847693445562       -12.314355350713303        269.51321245057011     
   195.00848291062010        5.3284557395985068       -13.684551764004594        283.19776421457470     
   206.82677776706097        5.3220721866160847       -15.237040849018959        298.43480506359367     
   218.64507262350185        5.3147407464159198       -16.875262979919469        315.31006804351313     
   230.46336747994272        5.3064698634347778       -18.585336923710027        333.89540496722316     
   242.99076002777002        5.2966673383812983       -20.463019240592281        354.35842420781546     
   256.26979612846696        5.2851478531373175       -22.508800223673401        376.86722443148886     
   269.54883222916391        5.2725426952578189       -24.593635447744948        401.46085987923379     
   280.17206110972148        5.2617887443328009       -26.278644883967139        427.73950476320096     
   291.43268372311252        5.2496696625349450       -28.075384216787313        455.81488897998827     
   303.36894369330702        5.2360563246422265       -29.982536045903718        485.79742502589198     
   316.02137926171315        5.2208164096041827       -31.997137765677934        517.79456279156989     
   329.43296096422370        5.2038160538234521       -34.114495435725011        551.90905822729485     
   343.64923756888487        5.1849216301251095       -36.328202647064977        588.23726087435978     
   358.71849076982568        5.1640014570547681       -38.630320928905938        626.86758180326569     
   374.69189916282295        5.1409271202048057       -41.011792873644467        667.87937467691017     
   391.62371205940008        5.1155739070307549       -43.463186233579322        711.34256091048951     
   409.57143372977180        5.0878199387045244       -45.975675085548829        757.31823599603831     
   427.51915540014352        5.0592978505606006       -48.401658340699925        805.71989433673821     
   445.46687707051524        5.0301050832899223       -50.742951829592300        856.46284616633056     
   464.49146204110929        4.9985073643500986       -53.133113523713547        909.59595969004408     
   483.51604701170334        4.9663433454815928       -55.435457716979599        965.03141740702370     
   502.54063198229738        4.9336901185894373       -57.653217603408635        1022.6846350104323     
   522.70669205112711        4.8986109760603309       -59.911700706825535        1082.5963357172579     
   544.08271572408660        4.8609938888511532       -62.203807924545195        1144.8001436418031     
   566.74130081742362        4.8207348063898499       -64.520111025023013        1209.3202546668260     
   590.75940101636093        4.7777416411910956       -66.848896717508296        1276.1691513843343     
   616.21858722723437        4.7319357018430948       -69.177591578415829        1345.3467429627501     
   641.67777343810781        4.6860090739717872       -71.370088841588654        1416.7168318043387     
   668.66451082163371        4.6373108788287674       -73.545992245113169        1490.2628240494519     
   697.27045244817123        4.5857986469541121       -75.692352279341492        1565.9551763287934     
   727.59275057230093        4.5314468136873556       -77.795910775629892        1643.7510871044233     
   757.91504869643063        4.4774586832446825       -79.736207218289849        1723.4872943227131     
   790.05668470800811        4.4207568479472350       -81.618382964714826        1805.1056772874279     
   824.12681888028021        4.3613600464828721       -83.429105929353113        1888.5347832167809     
   858.19695305255232        4.3027672749988950       -85.066947334400879        1973.6017305511818     
   894.31129527516077        4.2416530217361750       -86.623302942365413        2060.2250334935475     
   932.59249803112573        4.1780612855212693       -88.091210940367617        2148.3162444339150     
   973.17057295244865        4.1120232436693573       -89.472207375483208        2237.7884518093983     
   1016.1833323690510        4.0435319277827455       -90.778559974396799        2328.5670117837954     
   1059.1960917856532        3.9764734728363296       -91.962508811153825        2420.5295205949492     
   1104.7896167672516        3.9069036917163920       -93.105671669310354        2513.6351922642593     
   1150.3831417488500        3.8387814753710572       -94.145568606449345        2607.7807608707085     
   1198.7122782293443        3.7681714482875375       -95.131268423024679        2702.9120292937332     
   1249.9411628986682        3.6951116978904111       -96.048643393840280        2798.9606726875736     
   1304.2437806481516        3.6196598761276011       -96.887908967857641        2895.8485816554312     
   1361.8045554626040        3.5419131442354104       -97.634342366711223        2993.4829240221425     
   1419.3653302770563        3.4663970960970119       -98.244569782434723        3091.7274938045771     
   1480.3797515803758        3.3888462709525582       -98.749052755031329        3190.4765465596083     
   1541.3941728836953        3.3137670102673629       -99.123550556376514        3289.6000971159847     
   1602.4085941870148        3.2410145321895674       -99.409916144773007        3389.0100132607577     
   1663.4230154903344        3.1704870013832331       -99.615041018976143        3488.6250542797338     
   1724.4374367936539        3.1020840633913833       -99.750085380075873        3588.3751396598095     
   1789.1127233751727        3.0317752012059098       -99.845016982188000        3688.2201566419976     
   1857.6685271515826        2.9595072326702230       -99.908102157021219        3788.1282587990190     
   1930.3376791545770        2.8852017496011473       -99.949425122536297        3888.0776839215555     
   2003.0068311575715        2.8130764032067166       -99.951816634330200        3988.0295005558855     
   2080.0361322807457        2.7390943453263716       -99.878137016405546        4087.9076375722912     
   2157.0654334039200        2.6675227641292683       -99.741426675899135        4187.6490642481904     
   2238.7164925944844        2.5943142266756687       -99.525541726819753        4287.1746059750103     
   2320.3675517850488        2.5237261699538198       -99.238658436966489        4386.4132644119763     
   2406.9176745270474        2.4517755056234813       -98.863639645929027        4485.2769040579051     
   2498.6608046335659        2.3783813614985725       -98.449452963535066        4583.7263570214400     
   2590.4039347400844        2.3077285126202405       -97.998375372774291        4681.7247323942147     
   2682.1470648466029        2.2396882636550934       -97.514286245634594        4779.2390186398497     
   2779.3947827595125        2.1701593201080245       -97.008796066236101        4876.2478147060856     
   2882.4773637471967        2.0989700722912961       -96.505235311446000        4972.7530500175317     
   2991.7448995941418        2.0256675600451346       -96.066265640510281        5068.8193156580419     
   3101.0124354410868        1.9549376558220359       -95.553263792280248        5164.3725794503225     
   3210.2799712880319        1.8867528475889324       -95.003686088963050        5259.3762655392857     
   3326.1035592857938        1.8173839507301446       -94.364117552632521        5353.7403830919184     
   3441.9271472835558        1.7510063141180900       -93.655317527169714        5447.3957006190885     
   3557.7507352813177        1.6872824420182413       -92.946802434265251        5540.3425030533535     
   3673.5743232790796        1.6253252868400736       -92.361929073584321        5632.7044321269377     
   3789.3979112768416        1.5655028895042429       -91.728194069868096        5724.4326261968054     
   3905.2214992746035        1.5077287535691002       -91.086433201433380        5815.5190593982388     
   4027.9945025522311        1.4484500337100716       -90.442401687056261        5905.9614610852950     
   4158.1338860265159        1.3877650666812811       -89.762663516819117        5995.7241246021140     
   4288.2732695008008        1.3294972858085141       -89.026186511696238        6084.7503111138103     
   4426.2210159835431        1.2697718338082657       -88.317220179471903        6173.0675312932826     
   4572.4456272552497        1.2092203204263698       -87.493882956223374        6260.5614142495060     
   4718.6702385269564        1.1514703638565071       -86.626488176109788        6347.1879024256159     
   4873.6683264749654        1.0924931761463348       -85.800448717716179        6432.9883511433318     
   4997.6667968333732        1.0456544392466176       -85.335888976596209        6518.3242401199277     
   5129.1051754132850       0.99761357073366841       -84.717735539367922        6603.0419756592955     
   5260.5435539931968       0.95110912324555175       -84.086504157417153        6687.1284798167126     
   5399.8682352879032       0.90393079459747883       -83.340967220820716        6770.4694470375334     
   5539.1929165826095       0.85795185527104523       -82.703599332673534        6853.1730463702070     
   5678.5175978773159       0.81345269118375874       -82.041980875260720        6935.2150272454674     
   5826.2017600497047       0.76772095882293367       -81.367329483447477        7016.5823567289144     
   5982.7469719524370       0.72121426851523618       -80.605051484255142        7097.1874082131699     
   6139.2921838551692       0.67706111393012458       -79.759413659020339        7176.9468218721904     
   6305.2301084720657       0.63140068747477052       -79.040049349828408        7255.9868712220186     
   6471.1680330889621       0.58507609883335654       -78.614332529396009        7334.6012037514147     
   6647.0622331828727       0.53821631396154745       -77.896736554152724        7412.4979403055677     
   6822.9564332767832       0.49431209259240316       -77.023575246212985        7489.5215155517808     
   6998.8506333706937       0.45157725426685807       -76.314475810834807        7565.8359913626155     
   7174.7448334646042       0.40912470463589246       -75.762853748551592        7641.5988451111671     
   7350.6390335585147       0.36852815348247930       -75.048950167225286        7716.6477952783926     
   7537.0868856580591       0.32588575479221371       -74.488772683020258        7791.1365679614128     
   7723.5347377576036       0.28628905643796154       -73.649176764568466        7864.7857447259812     
   7909.9825898571480       0.24735590520056211       -72.998613682967900        7937.7843584089487     
   8096.4304419566924       0.20714367168275971       -72.650060841650372        8010.4344192505987     
   8294.0651651822100       0.16911924821758212       -71.723834888383294        8082.1582541389816     
   8491.6998884077275       0.13249061087940406       -70.965774938901490        8153.1240290778833     
   8689.3346116332450        9.6185870078193153E-002  -70.361632653471872        8223.4856617313544     
   8886.9693348587625        6.0546075614718753E-002  -69.781735298351180        8293.2673970297055     
   9084.6040580842800        2.5821703401821772E-002  -69.166098231894154        8362.4334952615991     
   9284.6040580842800       -8.3461066663362282E-003  -68.610763240376116        8431.0442585019755     
   9484.6040580842800       -4.0630914248597272E-002  -67.909738622798201        8498.9539971247741     
   9684.6040580842800       -7.2876335696423766E-002  -67.378684110602478        8566.3326812353771     
   9884.6040580842800      -0.10436931516801312       -67.275936706635278        8633.6086179420126     
   10084.604058084280      -0.13398360558714167       -66.739407887457673        8700.3480258294694     
   10284.604058084280      -0.16242650158591382       -66.423691436736661        8766.7717172662069     
   10484.604058084280      -0.19100181534512523       -66.333837649686629        8833.1055549158937     
   10684.604058084280      -0.21854354703278911       -66.803224389599379        8899.9087793054932     
   10884.604058084280      -0.24583808722444556       -67.435181176452289        8967.3439604819450     
   11084.604058084280      -0.27209032643956599       -68.636015048506536        9035.9799755304521     
   11284.604058084280      -0.29914674397327184       -69.853290033140382        9105.8332655635932     
   11484.604058084280      -0.32397929134962111       -71.085351174508730        9176.9186167381013     
   11684.604058084280      -0.34853361441489861       -73.379085783781008        9250.2977025218825     
   11884.604058084280      -0.37501537728553108       -75.672347408840224        9325.9700499307219     
   12084.604058084280      -0.39879603770850980       -77.223521041174067        9403.1935709718964     
   12284.604058084280      -0.42205640215944290       -79.490165442289026        9482.6837364141848     
   12484.604058084280      -0.44501436047259729       -82.940296922449505        9565.6240333366350     
   12684.604058084280      -0.46943843699184318       -86.271461166019719        9651.8954945026544     
   12884.604058084280      -0.49634728961949470       -89.269219863427111        9741.1647143660812     
   13084.604058084280      -0.52149180648985716       -92.089564384929346        9833.2542787510101     
   13284.604058084280      -0.54762711659547869       -94.957992041889909        9928.2122707928993     
   13484.604058084280      -0.57079006177496272       -98.479222066786718        10026.691492859685     
   13684.604058084280      -0.59683714162403445       -101.00850039829868        10127.699993257984     
   13884.604058084280      -0.62461660345340864       -102.97692096932103        10230.676914227304     
   14084.604058084280      -0.65367938861511821       -104.64640345860339        10335.323317685908     
   14284.604058084280      -0.67860823954877103       -107.15209885651501        10442.475416542424     
   14484.604058084280      -0.70524091851863546       -108.80385648227950        10551.279273024704     
   14684.604058084280      -0.73408900051882275       -109.63452658372510        10660.913799608428     
