 #              _____________________  _______________________             #
 #              ___  __ \__  __ \_  / / /_  /___  ____/_  ___/             #
 #              __  / / /_  /_/ /  / / /_  __/_  __/  _____ \              #
 #              _  /_/ /_  _, _// /_/ / / /_ _  /___  ____/ /              #
 #              /_____/ /_/ |_| \____/  \__/ /_____/  /____/               #
 #                                                                         #
  
 #        time                      T            heat flux [W.L-2]   in    x              directions   cumulative flux
 #-----------------------------------------------------------------------------------------------

   0.0000000000000000        5.1906999999999996       -4.1881534424623688        4.1881534424623688     
   1.0000000000000000        4.8188234139772970       -101.30714993781703        105.49530338027940     
   1.9540000000000002        4.4950462290957756       -183.30328212536369        288.79858550564308     
   2.8641160000000001        4.2115192630765970       -252.88877401939936        541.68735952504244     
   3.8288389600000006        3.9355359166175208       -318.29914606408528        859.98650558912777     
   4.8514452976000007        3.6676954227418928       -379.33898163950005        1239.3254872286279     
   5.9354080154560007        3.4085003127385831       -435.85778058556764        1675.1832678141955     
   7.0844084963833609        3.1583474541093559       -487.75310088025014        2162.9363686944457     
   8.3023490061663630        2.9175214597250254       -534.97262076374079        2697.9089894581866     
   9.5933659465363448        2.6861908365572074       -577.51498332941026        3275.4239727875970     
   10.961843903328527        2.4644071510892434       -615.42932763976785        3890.8533004273650     
   12.412430537528239        2.2521073713463888       -648.81346271650023        4539.6667631438650     
   13.950052369779934        2.0491194069697358       -677.81070113240196        5217.4774642762668     
   15.579931511966731        1.8551707159667727       -702.60543418886232        5920.0828984651289     
   17.307603402684734        1.6698996890902671       -723.41759665506083        6643.5004951201900     
   19.138935606845820        1.4928693713924299       -740.49623095357981        7383.9967260737694     
   21.080147743256571        1.3235829474698502       -754.11241338495483        8138.1091394587238     
   23.137832607851966        1.1615003141591158       -764.55184357308337        8902.6609830318066     
   25.318978564323086        1.0060550023648172       -772.10741862872521        9674.7684016605326     
   27.630993278182473       0.85667069586063516       -777.07211273898054        10451.840514399513     
   30.081728874873424       0.71277663282951287       -779.73245997312245        11231.572974372635     
   32.679508607365833       0.57382126426437874       -780.36289414678731        12011.935868519422     
   35.433155123807786       0.43928367563804788       -779.22113789683090        12791.157006416253     
   38.352020431236255       0.30868244317637616       -776.54475895024098        13567.701765366495     
   41.446017657110431       0.18158177860841029       -772.54893164302041        14340.250697009516     
   44.725654716537058        5.7594999342714059E-002  -767.42536347564157        15107.676060485159     
   48.202069999529286       -6.3614472422149182E-002  -761.34227708150854        15869.018337566667     
   51.887070199501046      -0.18233424295070988       -754.44528349518919        16623.463621061856     
   55.793170411471110      -0.29880578077886505       -775.82741890004570        17399.291039961900     
   59.933636636159378      -0.41322847352660691       -782.31702199745382        18181.608061959352     
   64.322530834328944      -0.46307376537646322       -729.69933537674490        18911.307397336099     
   68.974758684388689      -0.52663547637762420       -702.82114531587149        19614.128542651972     
   73.626986534448434      -0.55896945052023683       -689.89723789664129        20304.025780548614     
   78.558348055511757      -0.58665913117621937       -668.38065055020888        20972.406431098825     
   83.785591267838882      -0.61099687809432646       -650.01301444658463        21622.419445545409     
   89.326469072905638      -0.63292234089743771       -633.88677004128635        22256.306215586694     
   95.199799546276395      -0.65322156039597967       -619.42322897771783        22875.729444564411     
   101.42552984804939      -0.67258451316279400       -606.19695213810894        23481.926396702522     
   108.02480396792878      -0.69711801526369310       -593.25321410672268        24075.179610809246     
   114.62407808780816      -0.72574612473368139       -581.35675793165228        24656.536368740897     
   121.61930865488030      -0.76142339860133434       -570.16761220063563        25226.703980941533     
   129.03425305597676      -0.78089823822429771       -559.88247338186784        25786.586454323402     
   136.89409412113903      -0.80263359895563346       -549.43493115716672        26336.021385480570     
   145.22552565021104      -0.82754690887468307       -538.89775562726618        26874.919141107835     
   154.05684307102737      -0.85702984619604095       -528.41233359111447        27403.331474698949     
   163.41803953709268      -0.89329276712880701       -518.25964693889080        27921.591121637841     
   173.34090779112191      -0.93994920627444745       -508.99931986838106        28430.590441506221     
   183.85914814039288       -1.0029910754552058       -501.68154419296815        28932.271985699190     
   195.00848291062010       -1.0921244811165733       -498.12086621942257        29430.392851918612     
   206.82677776706097       -1.1612896330920843       -500.70561759794708        29931.098469516561     
   218.64507262350185       -1.2120543369536068       -503.02192616103997        30434.120395677601     
   230.46336747994272       -1.2445597908166437       -505.53871786633465        30939.659113543934     
   242.99076002777002       -1.2733022014672912       -508.33278073272550        31447.991894276660     
   256.26979612846696       -1.3054525444798233       -511.36315530873787        31959.355049585396     
   269.54883222916391       -1.3536367599867754       -514.33957491661522        32473.694624502012     
   280.17206110972148       -1.3966956295091657       -516.27823764406298        32989.972862146074     
   291.43268372311252       -1.4204132162502110       -517.29367397940416        33507.266536125477     
   303.36894369330702       -1.4453325042440128       -517.91338392681860        34025.179920052295     
   316.02137926171315       -1.4731892741140393       -518.16239389983753        34543.342313952133     
   329.43296096422370       -1.5049154808303906       -518.02760292885478        35061.369916880991     
   343.64923756888487       -1.5420546464615055       -517.47332122259593        35578.843238103589     
   358.71849076982568       -1.5871644882536500       -516.43497613555655        36095.278214239144     
   374.69189916282295       -1.6444543609480604       -514.84374411463830        36610.121958353782     
   391.62371205940008       -1.7207184933967876       -512.72717048030438        37122.849128834088     
   409.57143372977180       -1.7918667026059731       -510.19184039826598        37633.040969232352     
   427.51915540014352       -1.8444680496389245       -507.22601694964840        38140.266986182003     
   445.46687707051524       -1.8831718173913561       -506.49415261044021        38646.761138792441     
   464.49146204110929       -1.9579976167165538       -514.85932993693143        39161.620468729372     
   483.51604701170334       -2.0519107213119905       -526.39860118527247        39688.019069914648     
   502.54063198229738       -2.1093319524516962       -533.77412485680327        40221.793194771453     
   522.70669205112711       -2.1648111523700702       -539.34440790991187        40761.137602681367     
   544.08271572408660       -2.2223049585123649       -544.36232253661899        41305.499925217984     
   566.74130081742362       -2.2788161008760279       -548.17584864265598        41853.675773860639     
   590.75940101636093       -2.3321066861755013       -550.39725655730444        42404.073030417945     
   616.21858722723437       -2.3877895529187105       -547.77633314308912        42951.849363561036     
   641.67777343810781       -2.4360255232437860       -547.40793074499175        43499.257294306030     
   668.66451082163371       -2.4787964800648279       -545.42774389136400        44044.685038197393     
   697.27045244817123       -2.5189934703372550       -541.42777138933047        44586.112809586724     
   727.59275057230093       -2.5572918635022921       -536.14966765457928        45122.262477241304     
   757.91504869643063       -2.5914054741218933       -531.09556958559699        45653.358046826899     
   790.05668470800811       -2.6231133608257382       -525.51438107206877        46178.872427898968     
   824.12681888028021       -2.6684521521370010       -516.84206210889477        46695.714490007864     
   858.19695305255232       -2.7065307027898582       -512.13537564807314        47207.849865655939     
   894.31129527516077       -2.7478112792623288       -505.82115037167551        47713.671016027612     
   932.59249803112573       -2.7893245437495753       -499.52396771558898        48213.194983743204     
   973.17057295244865       -2.8347458610535599       -492.39510181391967        48705.590085557124     
   1016.1833323690510       -2.8809681665864608       -484.47877051745797        49190.068856074584     
   1059.1960917856532       -2.9237034015061178       -476.85136336222735        49666.920219436812     
   1104.7896167672516       -2.9909040125081892       -465.92148977387126        50132.841709210683     
   1150.3831417488500       -3.0465990651680972       -456.94592496155946        50589.787634172244     
   1198.7122782293443       -3.1118729836178378       -447.27577585167404        51037.063410023919     
   1249.9411628986682       -3.1731364995007785       -437.83436737859955        51474.897777402519     
   1304.2437806481516       -3.2352527825478283       -428.88772096957638        51903.785498372097     
   1361.8045554626040       -3.2908273910636776       -420.53029640963337        52324.315794781731     
   1419.3653302770563       -3.3354172833131868       -413.11685145116991        52737.432646232897     
   1480.3797515803758       -3.3758171303483087       -406.92390232140474        53144.356548554300     
   1541.3941728836953       -3.4113390628366913       -401.15892631695374        53545.515474871252     
   1602.4085941870148       -3.4531024299191073       -395.07727449507877        53940.592749366333     
   1663.4230154903344       -3.4865564624950656       -389.42100656611831        54330.013755932450     
   1724.4374367936539       -3.5182125632356644       -384.42552751665443        54714.439283449108     
   1789.1127233751727       -3.5515021926692025       -379.56370070566703        55094.002984154773     
   1857.6685271515826       -3.5855834826152284       -374.52668429177453        55468.529668446550     
   1930.3376791545770       -3.6333130821910178       -368.39597887582391        55836.925647322372     
   2003.0068311575715       -3.6754976817354201       -361.45903444906338        56198.384681771437     
   2080.0361322807457       -3.7214554930974302       -354.88050972681953        56553.265191498256     
   2157.0654334039200       -3.7640991903050378       -348.03614034354780        56901.301331841802     
   2238.7164925944844       -3.8074768206087057       -341.58687202508565        57242.888203866889     
   2320.3675517850488       -3.8428520836858238       -335.41889210514739        57578.307095972035     
   2406.9176745270474       -3.8770626614474484       -330.16596870962940        57908.473064681668     
   2498.6608046335659       -3.9120700554512942       -324.96682236654681        58233.439887048218     
   2590.4039347400844       -3.9407659539673263       -319.92362914761657        58553.363516195837     
   2682.1470648466029       -3.9677933785138464       -315.59433473175062        58868.957850927589     
   2779.3947827595125       -3.9958967826931615       -311.45791176377838        59180.415762691366     
   2882.4773637471967       -4.0249627093150675       -307.16331108254150        59487.579073773908     
   2991.7448995941418       -4.0647242342602405       -302.27778071967458        59789.856854493584     
   3101.0124354410868       -4.0984369951116308       -296.42755246476230        60086.284406958344     
   3210.2799712880319       -4.1333098260734324       -291.18542163154160        60377.469828589885     
   3326.1035592857938       -4.1686704825479453       -285.88198884306144        60663.351817432944     
   3441.9271472835558       -4.1977367313346461       -280.70159493833910        60944.053412371286     
   3557.7507352813177       -4.2254408922263513       -276.28238248488918        61220.335794856175     
   3673.5743232790796       -4.2521140511321498       -272.05882482095751        61492.394619677136     
   3789.3979112768416       -4.2752781752400546       -268.09657025962252        61760.491189936758     
   3905.2214992746035       -4.2966912580241443       -264.60182273010236        62025.093012666861     
   4027.9945025522311       -4.3195614134596205       -261.29753575387252        62286.390548420735     
   4158.1338860265159       -4.3463839547423033       -257.68107786609363        62544.071626286830     
   4288.2732695008008       -4.3705332071040424       -253.64808384234024        62797.719710129168     
   4426.2210159835431       -4.3980357216597881       -249.86514692127133        63047.584857050439     
   4572.4456272552497       -4.4247740930351043       -245.70767423615268        63293.292531286592     
   4718.6702385269564       -4.4482172172362162       -241.69697568679936        63534.989506973390     
   4873.6683264749654       -4.4737990731031330       -238.06513845810235        63773.054645431490     
   4997.6667968333732       -4.4872118163276458       -234.39193986231416        64007.446585293801     
   5129.1051754132850       -4.5086111983915913       -232.07158277133320        64239.518168065137     
   5260.5435539931968       -4.5230482928927023       -229.02361249579369        64468.541780560932     
   5399.8682352879032       -4.5425289836481753       -226.66133810223877        64695.203118663172     
   5539.1929165826095       -4.5591301792182835       -223.75789861453265        64918.961017277703     
   5678.5175978773159       -4.5771419686875854       -221.15504661389593        65140.116063891597     
   5826.2017600497047       -4.5957277395522791       -218.39822791553394        65358.514291807129     
   5982.7469719524370       -4.6150783121660996       -215.54696135613642        65574.061253163265     
   6139.2921838551692       -4.6320382910933553       -212.63833709477549        65786.699590258038     
   6305.2301084720657       -4.6512138830519225       -209.99414632319616        65996.693736581234     
   6471.1680330889621       -4.6672910311876761       -207.12786504069601        66203.821601621923     
   6647.0622331828727       -4.6856214291738505       -204.61913957732975        66408.440741199258     
   6822.9564332767832       -4.6998164648263092       -201.90461409537824        66610.345355294630     
   6998.8506333706937       -4.7162052923728952       -199.66257185502178        66810.007927149651     
   7174.7448334646042       -4.7311148839019372       -197.17791512026892        67007.185842269915     
   7350.6390335585147       -4.7468295920004033       -194.86198876378222        67202.047831033691     
   7537.0868856580591       -4.7633971161873250       -192.44515403621406        67394.492985069912     
   7723.5347377576036       -4.7780071537758753       -189.94240494140166        67584.435390011320     
   7909.9825898571480       -4.7929903663491062       -187.68444322779678        67772.119833239121     
   8096.4304419566924       -4.8066688762414760       -185.40979831327454        67957.529631552403     
   8294.0651651822100       -4.8216772020582015       -183.29253885252069        68140.822170404921     
   8491.6998884077275       -4.8336891383532210       -181.05067783196043        68321.872848236875     
   8689.3346116332450       -4.8471797543940527       -179.16806975035783        68501.040917987237     
   8886.9693348587625       -4.8591598379498819       -177.12587153883354        68678.166789526076     
   9084.6040580842800       -4.8719877218199610       -175.26262486607007        68853.429414392143     
   9284.6040580842800       -4.8839878330007060       -173.31012697349860        69026.739541365649     
   9484.6040580842800       -4.8960089442870132       -171.46259202277429        69198.202133388419     
   9684.6040580842800       -4.9073306115268345       -169.62798830389087        69367.830121692314     
   9884.6040580842800       -4.9186160226048399       -167.88619354713589        69535.716315239450     
   10084.604058084280       -4.9290528936374258       -166.16812415618426        69701.884439395639     
   10284.604058084280       -4.9391428863398801       -164.56950718499164        69866.453946580630     
   10484.604058084280       -4.9487286591261777       -163.02772872666230        70029.481675307296     
   10684.604058084280       -4.9583004237687351       -161.55265383368570        70191.034329140981     
   10884.604058084280       -4.9674759830848449       -160.08824831686678        70351.122577457849     
   11084.604058084280       -4.9766350279539155       -158.67639996678298        70509.798977424638     
   11284.604058084280       -4.9855627723048324       -157.27186755965053        70667.070844984293     
   11484.604058084280       -4.9944323039682601       -155.89912173286169        70822.969966717152     
   11684.604058084280       -5.0030722111695400       -154.53910020709074        70977.509066924249     
   11884.604058084280       -5.0115849634138563       -153.21220208048095        71130.721269004731     
   12084.604058084280       -5.0197436661459811       -151.90984711208881        71282.631116116827     
   12284.604058084280       -5.0276055878410713       -150.66076705007922        71433.291883166909     
   12484.604058084280       -5.0351736906934530       -149.45726525241321        71582.749148419316     
   12684.604058084280       -5.0425923556460335       -148.29580330755505        71731.044951726872     
   12884.604058084280       -5.0498833507649037       -147.15688462979119        71878.201836356660     
   13084.604058084280       -5.0570635475725805       -146.03721151604745        72024.239047872703     
   13284.604058084280       -5.0641136586821149       -144.93502955198076        72169.174077424686     
   13484.604058084280       -5.0710331588341004       -143.85288775356793        72313.026965178258     
   13684.604058084280       -5.0778167890533403       -142.79096905482683        72455.817934233084     
   13884.604058084280       -5.0844702444995633       -141.74985014755723        72597.567784380648     
   14084.604058084280       -5.0910096186571625       -140.72839893709119        72738.296183317740     
   14284.604058084280       -5.0973822938092610       -139.72565281395052        72878.021836131695     
   14484.604058084280       -5.1035728677083032       -138.74891841283346        73016.770754544530     
   14684.604058084280       -5.1095860407880469       -137.80010579566809        73154.570860340202     
