 #              _____________________  _______________________             #
 #              ___  __ \__  __ \_  / / /_  /___  ____/_  ___/             #
 #              __  / / /_  /_/ /  / / /_  __/_  __/  _____ \              #
 #              _  /_/ /_  _, _// /_/ / / /_ _  /___  ____/ /              #
 #              /_____/ /_/ |_| \____/  \__/ /_____/  /____/               #
 #                                                                         #
  
 #        time                      T            heat flux [W.L-2]   in    x              directions   cumulative flux
 #-----------------------------------------------------------------------------------------------

   0.0000000000000000        5.4707999999999997       0.83978018327393922       0.83978018327393922     
   1.0000000000000000        5.4701489956912415        1.0097720618602617        1.8495522451342010     
   1.9540000000000002        5.4695614328512780        1.1586883853307435        3.0082406304649445     
   2.8641160000000001        5.4690290179903007        1.2897355355741675        4.2979761660391116     
   3.8288389600000006        5.4684936939143318        1.4173905746948607        5.7153667407339723     
   4.8514452976000007        5.4679561166333484        1.5412652708851675        7.2566320116191401     
   5.9354080154560007        5.4674168857133747        1.6610041796484529        8.9176361912675937     
   7.0844084963833609        5.4668765314244743        1.7762907518846227        10.693926943152217     
   8.3023490061663630        5.4663355028311464        1.8868528968723477        12.580779840024565     
   9.5933659465363448        5.4657941572649342        1.9924677968494304        14.573247636873996     
   10.961843903328527        5.4652527516084310        2.0929657804402617        16.666213417314257     
   12.412430537528239        5.4647114357871605        2.1882330834172001        18.854446500731456     
   13.950052369779934        5.4641702488097943        2.2782133573552201        21.132659858086676     
   15.579931511966731        5.4636291176183942        2.3629078289906902        23.495567687077365     
   17.307603402684734        5.4630878589108534        2.4423740639854850        25.937941751062851     
   19.138935606845820        5.4625461839815426        2.5167233459330345        28.454665096995885     
   21.080147743256571        5.4620037064989351        2.5861167416471895        31.040781838643074     
   23.137832607851966        5.4614599530080650        2.6507599832206470        33.691541821863723     
   25.318978564323086        5.4609143758191276        2.7108973519530037        36.402439173816724     
   27.630993278182473        5.4603663678300434        2.7668047949310774        39.169243968747800     
   30.081728874873424        5.4598152787385263        2.8187825382105514        41.988026506958349     
   32.679508607365833        5.4592604320350056        2.8671474784387043        44.855173985397052     
   35.433155123807786        5.4587011421366869        2.9122256358320797        47.767399621229131     
   38.352020431236255        5.4581367310273672        2.9543449355725389        50.721744556801667     
   41.446017657110431        5.4575665438068306        2.9938285533665145        53.715573110168179     
   44.725654716537058        5.4569899626242417        3.0309890168707718        56.746562127038949     
   48.202069999529286        5.4564064185658232        3.0661232019340412        59.812685328972989     
   51.887070199501046        5.4558154011803692        3.0995083056456205        62.912193634618610     
   55.793170411471110        5.4552164654475934        3.1313988218298965        66.043592456448508     
   59.933636636159378        5.4546092361150906        3.1620244931268746        69.205616949575386     
   64.322530834328944        5.4539934094414813        3.1915891706956914        72.397206120271079     
   68.974758684388689        5.4533687524796939        3.2202704800892152        75.617476600360291     
   73.626986534448434        5.4527695788799466        3.2467484827904136        78.864225083150700     
   78.558348055511757        5.4521604539596504        3.2727483058074873        82.136973388958182     
   83.785591267838882        5.4515413479488020        3.2983539589006394        85.435327347858816     
   89.326469072905638        5.4509122728452546        3.3236324885943822        88.758959836453201     
   95.199799546276395        5.4502732760474508        3.3486349053242024        92.107594741777405     
   101.42552984804939        5.4496244330349972        3.3733972834742523        95.480992025251652     
   108.02480396792878        5.4489658393061413        3.3979419730880078        98.878933998339662     
   114.62407808780816        5.4483339602633913        3.4209815852104919        102.29991558355016     
   121.61930865488030        5.4476916269038087        3.4439003320768613        105.74381591562702     
   129.03425305597676        5.4470389469714489        3.4666849828721094        109.21050089849913     
   136.89409412113903        5.4463760183283743        3.4893150043478274        112.69981590284696     
   145.22552565021104        5.4457029210405246        3.5117633961484200        116.21157929899539     
   154.05684307102737        5.4450197093926445        3.5339975315317642        119.74557683052716     
   163.41803953709268        5.4443264039230046        3.5559799946108592        123.30155682513802     
   173.34090779112191        5.4436229835528813        3.5776694067573978        126.87922623189542     
   183.85914814039288        5.4429093778677249        3.5990212352911111        130.47824746718652     
   195.00848291062010        5.4421854595869821        3.6199885771787446        134.09823604436525     
   206.82677776706097        5.4414510372376679        3.6405229093550777        137.73875895372032     
   218.64507262350185        5.4407464139690074        3.6595231356082585        141.39828208932857     
   230.46336747994272        5.4400688443380689        3.6771269127909090        145.07540900211947     
   242.99076002777002        5.4393781587289496        3.6943616658981351        148.76977066801760     
   256.26979612846696        5.4386740035200374        3.7111791870792921        152.48094985509690     
   269.54883222916391        5.4379952168413670        3.7266776367874725        156.20762749188438     
   280.17206110972148        5.4374672222804525        3.7382934903155549        159.94592098219994     
   291.43268372311252        5.4369231555546556        3.7497925393327765        163.69571352153272     
   303.36894369330702        5.4363626092569763        3.7611378671738951        167.45685138870661     
   316.02137926171315        5.4357851320188058        3.7722914990677845        171.22914288777440     
   329.43296096422370        5.4351902220582975        3.7832145370557777        175.01235742483018     
   343.64923756888487        5.4345773202439336        3.7938672785984777        178.80622470342865     
   358.71849076982568        5.4339458026433727        3.8042093105822135        182.61043401401088     
   374.69189916282295        5.4332949725223854        3.8141995704085985        186.42463358441947     
   391.62371205940008        5.4326240517539679        3.8237963662687635        190.24842995068823     
   409.57143372977180        5.4319321715941573        3.8329573496319518        194.08138730032019     
   427.51915540014352        5.4312578149444040        3.8411981194362572        197.92258541975644     
   445.46687707051524        5.4305994101503643        3.8485992487592151        201.77118466851567     
   464.49146204110929        5.4299177690111318        3.8555852659983851        205.62676993451404     
   483.51604701170334        5.4292509258483532        3.8617862666574618        209.48855620117152     
   502.54063198229738        5.4285975707147953        3.8672677301114291        213.35582393128294     
   522.70669205112711        5.4279187828806998        3.8723382001569391        217.22816213143989     
   544.08271572408660        5.4272132745941803        3.8769531492325715        221.10511528067246     
   566.74130081742362        5.4264796332292144        3.8810657729257305        224.98618105359819     
   590.75940101636093        5.4257163083870115        3.8846267432944237        228.87080779689262     
   616.21858722723437        5.4249215980538468        3.8875839119182349        232.75839170881085     
   641.67777343810781        5.4241398079962106        3.8897929345082831        236.64818464331913     
   668.66451082163371        5.4233240623902983        3.8913654584848860        240.53955010180402     
   697.27045244817123        5.4224722887718535        3.8922418214648258        244.43179192326886     
   727.59275057230093        5.4215822164133591        3.8923577589025031        248.32414968217137     
   757.91504869643063        5.4207034514757595        3.8917252931299777        252.21587497530135     
   790.05668470800811        5.4197830962845890        3.8902794110103507        256.10615438631169     
   824.12681888028021        5.4188183908461003        3.8879408041818619        259.99409519049357     
   858.19695305255232        5.4178631049114356        3.8848504666989747        263.87894565719256     
   894.31129527516077        5.4168595522742748        3.8807821756391419        267.75972783283169     
   932.59249803112573        5.4158043273765193        3.8756271674461611        271.63535500027785     
   973.17057295244865        5.4146936416140736        3.8692568430754863        275.50461184335336     
   1016.1833323690510        5.4135232465097163        3.8615161181994226        279.36612796155276     
   1059.1960917856532        5.4123580266773299        3.8527998889809671        283.21892785053370     
   1104.7896167672516        5.4111267309602553        3.8424600050193769        287.06138785555311     
   1150.3831417488500        5.4098973637848760        3.8309970072309385        290.89238486278407     
   1198.7122782293443        5.4085941666300119        3.8175375711194945        294.70992243390356     
   1249.9411628986682        5.4072100386321917        3.8017226288533572        298.51164506275694     
   1304.2437806481516        5.4057365652129024        3.7831041384942106        302.29474920125114     
   1361.8045554626040        5.4041636684752623        3.7611242375814427        306.05587343883258     
   1419.3653302770563        5.4025756913380958        3.7367226041175470        309.79259604295015     
   1480.3797515803758        5.4008704793541087        3.7079106141315417        313.50050665708170     
   1541.3941728836953        5.3991381363701754        3.6759203569298262        317.17642701401155     
   1602.4085941870148        5.3973733443923626        3.6405194003147465        320.81694641432631     
   1663.4230154903344        5.3955706711605638        3.6014805142348147        324.41842692856113     
   1724.4374367936539        5.3937246053387389        3.5585864880853482        327.97701341664646     
   1789.1127233751727        5.3917124079046790        3.5085464218714950        331.48555983851793     
   1857.6685271515826        5.3895094051503563        3.4501078054114318        334.93566764392938     
   1930.3376791545770        5.3870862346407815        3.3818325992302065        338.31750024315960     
   2003.0068311575715        5.3845660250513436        3.3070042303620015        341.62450447352160     
   2080.0361322807457        5.3817751533076787        3.2201157566113490        344.84462023013293     
   2157.0654334039200        5.3788548753071810        3.1255082349776750        347.97012846511063     
   2238.7164925944844        5.3756028083571703        3.0164464360366448        350.98657490114726     
   2320.3675517850488        5.3721837697996744        2.8985711414035835        353.88514604255084     
   2406.9176745270474        5.3683606521398435        2.7637589314655484        356.64890497401638     
   2498.6608046335659        5.3640725397047540        2.6099125193929087        359.25881749340931     
   2590.4039347400844        5.3595381844704129        2.4453405641791699        361.70415805758847     
   2682.1470648466029        5.3547484073372136        2.2703338222051599        363.97449187979362     
   2779.3947827595125        5.3493751347079552        2.0735235882682326        366.04801546806186     
   2882.4773637471967        5.3433381235092998        1.8527833458268992        367.90079881388874     
   2991.7448995941418        5.3365477518307856        1.6059430210542283        369.50674183494294     
   3101.0124354410868        5.3293611475271589        1.3470654519895398        370.85380728693247     
   3210.2799712880319        5.3217755507437374        1.0770053311811403        371.93081261811358     
   3326.1035592857938        5.3132859083235822       0.77921959860666667        372.71003221672026     
   3441.9271472835558        5.3043491706798402       0.47096128369411377        373.18099350041439     
   3557.7507352813177        5.2949693026653097       0.15327164679476413        373.33426514720918     
   3673.5743232790796        5.2851521588792405      -0.17282852681652069        373.50709367402573     
   3789.3979112768416        5.2749052392390166      -0.50634775603244753        374.01344143005815     
   3905.2214992746035        5.2642374601083608      -0.84633126324174590        374.85977269329987     
   4027.9945025522311        5.2524688593141295       -1.2128928246723678        376.07266551797227     
   4158.1338860265159        5.2394924329347177       -1.6071724194764936        377.67983793744878     
   4288.2732695008008        5.2260315397607151       -2.0060344577328602        379.68587239518166     
   4426.2210159835431        5.2112403916271104       -2.4327165234690939        382.11858891865074     
   4572.4456272552497        5.1950015798056217       -2.8879922722537721        385.00658119090451     
   4718.6702385269564        5.1782303097711546       -3.3450071620173647        388.35158835292185     
   4873.6683264749654        5.1598880466568344       -3.8300530307786977        392.18164138370054     
   4997.6667968333732        5.1448700960022720       -4.2178496442601983        396.39949102796072     
   5129.1051754132850        5.1285849621273565       -4.6279647484997843        401.02745577646050     
   5260.5435539931968        5.1119541710135090       -5.0365167529033688        406.06397252936387     
   5399.8682352879032        5.0939612227614308       -5.4671743327152962        411.53114686207914     
   5539.1929165826095        5.0756276430373806       -5.8948474993870157        417.42599436146617     
   5678.5175978773159        5.0569766263129310       -6.3190292016949874        423.74502356316117     
   5826.2017600497047        5.0368767953896754       -6.7642159491534528        430.50923951231459     
   5982.7469719524370        5.0152315425581842       -7.2305879895383320        437.73982750185291     
   6139.2921838551692        4.9932768940892833       -7.6909859580350943        445.43081345988799     
   6305.2301084720657        4.9696917377440597       -8.1718538754396040        453.60266733532757     
   6471.1680330889621        4.9458263763227972       -8.6452067066058085        462.24787404193336     
   6647.0622331828727        4.9202518110405702       -9.1381786528175475        471.38605269475090     
   6822.9564332767832        4.8944357310167659       -9.6221126760172684        481.00816537076815     
   6998.8506333706937        4.8684121084276679       -10.096827142458682        491.10499251322682     
   7174.7448334646042        4.8422131372530295       -10.562205084896780        501.66719759812361     
   7350.6390335585147        4.8158692669036318       -11.018185348442215        512.68538294656582     
   7537.0868856580591        4.7878160695555536       -11.490953330182512        524.17633627674832     
   7723.5347377576036        4.7596662098523534       -11.953189427670086        536.12952570441837     
   7909.9825898571480        4.7314497143114291       -12.404975773882478        548.53450147830085     
   8096.4304419566924        4.7031946866329282       -12.846429987108156        561.38093146540905     
   8294.0651651822100        4.6732322088877236       -13.302939902152339        574.68387136756144     
   8491.6998884077275        4.6432865330225015       -13.748223596727934        588.43209496428938     
   8689.3346116332450        4.6133845535186753       -14.182505257134832        602.61460022142421     
   8886.9693348587625        4.5835512559099225       -14.606020304633677        617.22062052605793     
   9084.6040580842800        4.5538098409713275       -15.019012056074766        632.23963258213269     
   9284.6040580842800        4.5238288448397803       -15.426429851002242        647.66606243313493     
   9484.6040580842800        4.4939847896197032       -15.823598016559504        663.48966044969438     
   9684.6040580842800        4.4642966451617081       -16.210788841445748        679.70044929114010     
   9884.6040580842800        4.4347818536042460       -16.588278017802015        696.28872730894216     
   10084.604058084280        4.4054564129220761       -16.956342322665190        713.24506963160729     
   10284.604058084280        4.3763349734578529       -17.315255987713250        730.56032561932057     
   10484.604058084280        4.3474309374061324       -17.665287236979573        748.22561285630013     
   10684.604058084280        4.3187565596929263       -18.006696469782039        766.23230932608215     
   10884.604058084280        4.2903230196301916       -18.339736921162519        784.57204624724466     
   11084.604058084280        4.2621404768184155       -18.664656379440782        803.23670262668543     
   11284.604058084280        4.2342181067920848       -18.981699696660598        822.21840232334603     
   11484.604058084280        4.2065641299471270       -19.291110444785271        841.50951276813134     
   11684.604058084280        4.1791858556163080       -19.593129208379633        861.10264197651099     
   11884.604058084280        4.1520897457289241       -19.887991410426405        880.99063338693736     
   12084.604058084280        4.1252814655842069       -20.175926540015588        901.16655992695291     
   12284.604058084280        4.0987659458748409       -20.457157170359572        921.62371709731246     
   12484.604058084280        4.0725474505068249       -20.731896051210761        942.35561314852328     
   12684.604058084280        4.0466296621574243       -21.000343306640222        963.35595645516355     
   12884.604058084280        4.0210157504575088       -21.262686014595200        984.61864246975870     
   13084.604058084280        3.9957084088203203       -21.519101321183303        1006.1377437909420     
   13284.604058084280        3.9707098485147760       -21.769762866914494        1027.9075066578564     
   13484.604058084280        3.9460217690101880       -22.014846389522379        1049.9223530473787     
   13684.604058084280        3.9216453651629570       -22.254527648620858        1072.1768806959994     
   13884.604058084280        3.8975813890589488       -22.488975884169129        1094.6658565801686     
   14084.604058084280        3.8738302013897599       -22.718352499757035        1117.3842090799255     
   14284.604058084280        3.8503917870136686       -22.942814667824486        1140.3270237477500     
   14484.604058084280        3.8272657719905308       -23.162515960599951        1163.4895397083499     
   14684.604058084280        3.8044514734138293       -23.377602232562626        1186.8671419409125     
