 #              _____________________  _______________________             #
 #              ___  __ \__  __ \_  / / /_  /___  ____/_  ___/             #
 #              __  / / /_  /_/ /  / / /_  __/_  __/  _____ \              #
 #              _  /_/ /_  _, _// /_/ / / /_ _  /___  ____/ /              #
 #              /_____/ /_/ |_| \____/  \__/ /_____/  /____/               #
 #                                                                         #
  
 #        time                      T            heat flux [W.L-2]   in    x              directions   cumulative flux
 #-----------------------------------------------------------------------------------------------

   0.0000000000000000        10.000000000000000       -0.0000000000000000        0.0000000000000000     
   1.0000000000000000        10.000000000000002       -5.6488147492927924E-013   5.6488147492927924E-013
   1.9540000000000002        10.000000000000025       -7.3434591740806290E-012   7.9083406490099086E-012
   2.8641160000000001        10.000000000000126       -3.7847058820261698E-011   4.5755399469271606E-011
   3.8288389600000006        10.000000000000533       -1.6212098330470313E-010   2.0787638277397473E-010
   4.8514452976000007        10.000000000002014       -6.1346128177319718E-010   8.2133766454717188E-010
   5.9354080154560007        10.000000000006898       -2.0957102719876258E-009   2.9170479365347976E-009
   7.0844084963833609        10.000000000021668       -6.5616632127785099E-009   9.4787111493133075E-009
   8.3023490061663630        10.000000000063173       -1.9050627741989963E-008   2.8529338891303269E-008
   9.5933659465363448        10.000000000172673       -5.1835218783935614E-008   8.0364557675238889E-008
   10.961843903328527        10.000000000446155       -1.3327870007629015E-007   2.1364325775152904E-007
   12.412430537528239        10.000000001097124       -3.2603941946263784E-007   5.3968267721416682E-007
   13.950052369779934        10.000000002581976       -7.6307127017120306E-007   1.3027539473853699E-006
   15.579931511966731        10.000000005842169       -1.7164923455938617E-006   3.0192462929792315E-006
   17.307603402684734        10.000000012757996       -3.7252430686871367E-006   6.7444893616663678E-006
   19.138935606845820        10.000000026975256       -7.8250149826469510E-006   1.4569504344313319E-005
   21.080147743256571        10.000000055372080       -1.5951194264134916E-005   3.0520698608448237E-005
   23.137832607851966        10.000000110597442       -3.1626972656858706E-005   6.2147671265306943E-005
   25.318978564323086        10.000000215360867       -6.1109459786006429E-005   1.2325713105131337E-004
   27.630993278182473        10.000000409516691       -1.1525306784761472E-004   2.3851019889892808E-004
   30.081728874873424        10.000000761505333       -2.1246824440913648E-004   4.5097844330806456E-004
   32.679508607365833        10.000001386432467       -3.8331114851667672E-004   8.3428959182474133E-004
   35.433155123807786        10.000002474030127       -6.7744030219915564E-004   1.5117298940238969E-003
   38.352020431236255        10.000004330990915       -1.1739192835031843E-003   2.6856491775270812E-003
   41.446017657110431        10.000007443719614       -1.9961225285327904E-003   4.6817717060598715E-003
   44.725654716537058        10.000012569396253       -3.3327954059199443E-003   8.0145671119798163E-003
   47.506786942930837        10.000018626113299       -4.8966202463911991E-003   1.2911187358371014E-002
   48.714287808457584        10.000021613132752       -5.6651032584394186E-003   1.8576290616810431E-002
   49.994238725915935        10.000025225739799       -6.5909536927943298E-003   2.5167244309604760E-002
   51.350986698421785        10.000029614256697       -7.7109874872859589E-003   3.2878231796890721E-002
   52.789139549277991        10.000034968394674       -9.0713538187094760E-003   4.1949585615600193E-002
   54.313581571185566        10.000041528090042       -1.0729995428297331E-002   5.2679581043897528E-002
   55.929490114407599        10.000049597364583       -1.2759756697922028E-002   6.5439337741819550E-002
   57.642353170222954        10.000059562034028       -1.5252301178878465E-002   8.0691638920698014E-002
   59.457988009387229        10.000071912295700       -1.8323035249170855E-002   9.9014674169868866E-002
   61.382560938901356        10.000087271476408       -2.2117274319167001E-002  0.12113194848903587     
   63.422608244186335        10.000106432519535       -2.6817932156629858E-002  0.14794988064566572     
   65.585058387788408        10.000130404137987       -3.2655060824033078E-002  0.18060494146969880     
   67.877255540006615        10.000160468959940       -3.9917616771042448E-002  0.22052255824074124     
   70.306984521357904        10.000198256439758       -4.8967873049060445E-002  0.26949043128980166     
   72.882497241590272        10.000245833790533       -6.0258934185222310E-002  0.32974936547502398     
   75.612540725036581        10.000305818696704       -7.4355830830832623E-002  0.40410519630585662     
   78.506386817489670        10.000381518056805       -9.1960666754908590E-002  0.49606586306076522     
   81.573863675489946        10.000477097445163      -0.11394224919482286       0.61000811225558804     
   84.825389144970245        10.000597786309653      -0.14137054145888533       0.75137865371447332     
   88.272006142619361        10.000750124067377      -0.17555611912112973       0.92693477283560299     
   91.925420160127416        10.000942252132360      -0.21809457358495557        1.1450293464205585     
   95.798039018685955        10.001184256408186      -0.27091547647651704        1.4159448228970755     
   99.903015008758018        10.001488563796309      -0.33633508724525985        1.7522799101423354     
   104.25428955823440        10.001870394703493      -0.41711145423519125        2.1693913643775264     
   108.86664058067937        10.002348271291130      -0.51649993698989360        2.6858913013674202     
   113.75573266447104        10.002944578239976      -0.63830648980365712        3.3241977911710774     
   118.64482474826271        10.003637930755513      -0.77743626920574438        4.1016340603768215     
   123.82726235708186        10.004490141546256      -0.94525310465382495        5.0468871650306468     
   124.97930845308017        10.004685469911960      -0.98357278283433291        6.0304599478649799     
   126.20047731483835        10.004899233243874       -1.0253417973711274        7.0558017452361073     
   127.49491630830204        10.005133490142116       -1.0709211073754761        8.1267228526115840     
   128.86702164137355        10.005390561183368       -1.1207138118560214        9.2474366644676049     
   130.32145329442935        10.005673064898637       -1.1751702692426220        10.422606933710227     
   131.86315084666850        10.005983958764734       -1.2347937979320307        11.657400731642259     
   133.49735025204200        10.006326585866427       -1.3001470057723932        12.957547737414652     
   135.22960162173791        10.006704727946675       -1.3718587926883190        14.329406530102972     
   137.06578807361558        10.007122665626106       -1.4506320655503160        15.780038595653288     
   139.01214571260590        10.007585246633338       -1.5372521959825267        17.317290791635813     
   141.07528480993562        10.008097962941145       -1.6325962393646960        18.949887031000507     
   143.26221225310513        10.008667037745463       -1.7376429158539171        20.687529946854426     
   145.58035534286483        10.009299523248782       -1.8534833307398122        22.541013277594239     
   148.03758701801010        10.010003410209540       -1.9813323808615246        24.522345658455762     
   150.64225259366410        10.010787750186200       -2.1225407549784236        26.644886413434186     
   153.40319810385733        10.011662791328742       -2.2786073879446977        28.923493801378882     
   156.32980034466215        10.012640128440260       -2.4511921704719319        31.374685971850813     
   159.43199871991527        10.013732867834454       -2.6421286475988741        34.016814619449690     
   162.72032899768357        10.014955807238847       -2.8534363599255528        36.870250979375243     
   166.20595909211795        10.016325630789613       -3.0873324324686693        39.957583411843913     
   169.90072699221841        10.017861117781742       -3.3462416982577112        43.303825110101627     
   173.81718096632488        10.019583365345383       -3.6328050530706117        46.936630163172239     
   177.96862217887775        10.021516021922020       -3.9498849988249116        50.886515161997153     
   182.36914986418381        10.023685529386809       -4.3005676788036320        55.187082840800784     
   187.03370921060821        10.026121370041356       -4.6881604536840484        59.875243294484832     
   191.97814211781809        10.028856313755558       -5.1161840263398366        64.991427320824670     
   197.21924099946057        10.031926659409914       -5.5883580867999152        70.579785407624584     
   202.77480581400158        10.035372463623334       -6.1085794535153299        76.688364861139917     
   208.66370451741506        10.039237748596259       -6.6808917443116345        83.369256605451554     
   214.90593714303336        10.043570679817512       -7.3094457302836524        90.678702335735210     
   221.52270372618875        10.048423703449814       -7.9984497168853457        98.677152052620556     
   228.53647630433346        10.053853632505392       -8.7521095638469006        107.42926161646746     
   235.97107523716684        10.059921670537284       -9.5745583004268155        117.00381991689427     
   242.66221427671690        10.065629006350150       -10.331971414112122        127.33579133100639     
   248.33630018225534        10.070641386515582       -10.985508432369107        138.32129976337549     
   254.35083124212611        10.076142910973134       -11.689594668669045        150.01089443204455     
   260.36536230199687        10.081827167326765       -12.403753569770153        162.41464800181470     
   266.74076522545988        10.088050869036589       -13.170629287891066        175.58527728970577     
   273.49869232433065        10.094862499444247       -13.992952059751170        189.57822934945693     
   280.66209504913365        10.102313723182009       -14.873346048471948        204.45157539792888     
   288.25530193742486        10.110459344412554       -15.814277776779440        220.26585317470833     
   296.30410123901356        10.119357212246751       -16.817999521135395        237.08385269584372     
   304.83582849869754        10.129068066990925       -17.886488354490577        254.97034105033430     
   313.87945939396258        10.139655321515731       -19.021381795153371        273.99172284548769     
   323.46570814294353        10.151184772994036       -20.223911294183210        294.21563413967090     
   333.62713181686331        10.163724241534132       -21.494835059802714        315.71046919947361     
   339.14193967317306        10.170619219985269       -22.182997047308184        337.89346624678177     
   344.98763600086141        10.178023651763306       -22.910116142927055        360.80358238970882     
   350.83333232854977        10.185519077017656       -23.634397693088502        384.43798008279731     
   357.02977043589942        10.193560943738195       -24.398391055248624        408.83637113804593     
   363.59799482969004        10.202187602853535       -25.203406483410134        434.03977762145610     
   370.56031268710808        10.211439418074345       -26.050647946371726        460.09042556782782     
   377.94036961597124        10.221358732356881       -26.941185958407054        487.03161152623488     
   385.76322996056615        10.231989806312694       -27.875928280122459        514.90753980635736     
   394.05546192583677        10.243378725145945       -28.855588758267221        543.76312856462459     
   402.84522780902364        10.255573270844629       -29.880654674151934        573.64378323877656     
   412.16237964520172        10.268622756621308       -30.951353076999144        604.59513631577568     
   422.03856059155049        10.282577821006207       -32.067616687462412        636.66275300323809     
   432.50731239468018        10.297490179554487       -33.229050063936491        669.89180306717458     
   434.70276877282390        10.300622643330684       -33.471654066041125        703.36345713321566     
   436.56451578148977        10.303282553827287       -33.676683199272368        737.04014033248802     
   438.53796761067559        10.306105967504127       -33.893223710080953        770.93336404256900     
   440.62982654961257        10.309103043440258       -34.121863193541351        805.05522723611034     
   442.84719702488576        10.312284569315455       -34.363210968796103        839.41843820490647     
   445.19760972867533        10.315661998120468       -34.617897724355167        874.03633592926167     
   447.68904719469225        10.319247485768974       -34.886574867173337        908.92291079643496     
   450.32997090867019        10.323053929985903       -35.169913603054241        944.09282439948925     
   453.12935004548683        10.327095010335286       -35.468603709542002        979.56142810903123     
   456.09669193051246        10.331385229207712       -35.783351959109091        1015.3447800681403     
   459.24207432863966        10.335939953537816       -36.114880147106227        1051.4596602152465     
   462.57617967065448        10.340775456965238       -36.463922675755050        1087.9235828910016     
   466.11033133319017        10.345908962088121       -36.831223642646087        1124.7548065336478     
   469.85653209547803        10.351358682385822       -37.217533379781656        1161.9723399134293     
   473.82750490350315        10.357143863306963       -37.623604387484384        1199.5959443009137     
   478.03673608000975        10.363284821930417       -38.050186606619299        1237.6461309075330     
   482.49852112710676        10.369802984510352       -38.498021972841151        1276.1441528803741     
   487.22801327702956        10.376720921112907       -38.967838198286351        1315.1119910786604     
   492.24127495594774        10.384062376442227       -39.460341729503590        1354.5723328081640     
   497.55533233560107        10.391852295839087       -39.976209835934277        1394.5485426440982     
   503.18823315803354        10.400116845318221       -40.516081791098706        1435.0646244351969     
   509.15910802981199        10.408883424393123       -41.080549119298091        1476.1451735544949     
   515.48823539389718        10.418180670323425       -41.670144894364093        1517.8153184488590     
   522.19711039982747        10.428038452313265       -42.285332094048456        1560.1006505429075     
   529.30851790611359        10.438487859898345       -42.926491648596368        1603.0271421915038     
   536.84660986277686        10.449561155632948       -43.593907212356697        1646.6210494038605     
   544.83698733683991        10.461291745406239       -44.287752673131209        1690.9088020769918     
   553.30678745934676        10.473714111041643       -45.008076670691445        1735.9168787476833     
   562.28477558920395        10.486863729629615       -45.754787137704113        1781.6716658853875     
   571.26276371906113        10.499991020881717       -46.484872696200995        1828.1565385815884     
   580.24075184891831        10.513092030518797       -47.198555149791936        1875.3550937313803     
   589.75741926656701        10.526945198763308       -47.936906806810342        1923.2920005381907     
   599.84508672927461        10.541586657502455       -48.699511497922565        1971.9915120361131     
   610.53801423974460        10.557053147295640       -49.485775335974928        2021.4772873720881     
   621.87251740084287        10.573381857428885       -50.294912254818428        2071.7721996269065     
   633.88709075160705        10.590610242411328       -51.125930229559948        2122.8981298564663     
   646.62253850341699        10.608775814424558       -51.977618520611202        2174.8757483770773     
   660.12211312033560        10.627915911642193       -52.848536310999286        2227.7242846880768     
   671.56975239548251        10.644059891799435       -53.564721727537112        2281.2890064156140     
   677.78261518289025        10.652795402730341       -53.946916538621686        2335.2359229542358     
   681.15446007487219        10.657528546897776       -54.152443141446987        2389.3883660956826     
   684.72861566037307        10.662536820007290       -54.368185652201809        2443.7565517478843     
   688.51722058100393        10.667835518305203       -54.594516126052511        2498.3510678739367     
   692.53314179687266        10.673440687236223       -54.831802892306463        2553.1828707662430     
   696.79001828569358        10.679369145239724       -55.080407961179581        2608.2632787274224     
   701.30230736384374        10.685638504515229       -55.340683971332147        2663.6039626987545     
   706.08533378668290        10.692267189770408       -55.612970770963656        2719.2169334697182     
   711.15534179489237        10.699274454469400       -55.897591611598749        2775.1145250813170     
   716.52955028359440        10.706680394043754       -56.194848935870752        2831.3093740171876     
   722.22621128161859        10.714505955470639       -56.505019743608734        2887.8143937607965     
   728.26467193952419        10.722772942564067       -56.828350524512345        2944.6427442853087     
   734.66544023690415        10.731504016265992       -57.165051750777089        3001.8077960360856     
   741.45025463212698        10.740722689166205       -57.515291929291379        3059.3230879653770     
   748.64215789106311        10.750453318255330       -57.879191546789087        3117.2022795121661     
   756.26557534553547        10.760721071397956       -58.256815312064134        3175.4590948242303     
   763.88899280000783        10.770941697553614       -58.626481855923430        3234.0855766801537     
   771.96981530174844        10.781722168604086       -59.009566824446637        3293.0951435046004     
   780.53548715359352        10.793089012065938       -59.406002418825061        3352.5011459234256     
   789.61509931654928        10.805069457902817       -59.815644639365942        3412.3167905627915     
   799.23948820928240        10.817691380656182       -60.238265370825609        3472.5550559336170     
   809.44134043557949        10.830983229522516       -60.673544317421118        3533.2286002510382     
   820.25530379545444        10.844973945467272       -61.121060884737751        3594.3496611357759     
   831.71810495692193        10.859692864528961       -61.580286123130414        3655.9299472589064     
   843.86867418807742        10.875169606559426       -62.050574864856564        3717.9805221237630     
   856.74827757310231        10.891433948771779       -62.531158204640072        3780.5116803284031     
   870.40065716122865        10.908515683628249       -63.021136489977252        3843.5328168183805     
   884.87217952464255        10.926444460798233       -63.519473002587262        3907.0522898209679     
   900.21199322986126        10.945249613153289       -64.024988525230313        3971.0772783461980     
   916.47219575739314        10.964959967040183       -64.536356997792993        4035.6136353439911     
   933.70801043657696        10.985603637386122       -65.052102471719323        4100.6657378157106     
