 #              _____________________  _______________________             #
 #              ___  __ \__  __ \_  / / /_  /___  ____/_  ___/             #
 #              __  / / /_  /_/ /  / / /_  __/_  __/  _____ \              #
 #              _  /_/ /_  _, _// /_/ / / /_ _  /___  ____/ /              #
 #              /_____/ /_/ |_| \____/  \__/ /_____/  /____/               #
 #                                                                         #
  
 #        time                      T            heat flux [W.L-2]   in    x              directions   cumulative flux
 #-----------------------------------------------------------------------------------------------

   0.0000000000000000        15.000000000000000       -0.0000000000000000        0.0000000000000000     
   1.0000000000000000        15.000000000000000       -2.2861712523081203E-012   2.2861712523081203E-012
   1.9540000000000002        14.999999999999996       -1.8289370018464963E-011   2.0575541270773082E-011
   2.8641160000000001        14.999999999999989       -8.9922735924119414E-011   1.1049827719489250E-010
   3.8288389600000006        14.999999999999959       -3.8102854205135372E-010   4.9152681924624620E-010
   4.8514452976000007        14.999999999999851       -1.4372396606177104E-009   1.9287664798639567E-009
   5.9354080154560007        14.999999999999464       -4.8977408795281620E-009   6.8265073593921187E-009
   7.0844084963833609        14.999999999998177       -1.5285340992932728E-008   2.2111848352324848E-008
   8.3023490061663630        14.999999999994248       -4.4262561615942838E-008   6.6374409968267685E-008
   9.5933659465363448        14.999999999983002       -1.2011543759630771E-007   1.8648984756457541E-007
   10.961843903328527        14.999999999952584       -3.0800670813871974E-007   4.9449655570329515E-007
   12.412430537528239        14.999999999874344       -7.5138599875553364E-007   1.2458825544588287E-006
   13.950052369779934        14.999999999681892       -1.7535604115519556E-006   2.9994429660107842E-006
   15.579931511966731        14.999999999227102       -3.9330497685753340E-006   6.9324927345861182E-006
   17.307603402684734        14.999999998190642       -8.5103433582176904E-006   1.5442836092803809E-005
   19.138935606845820        14.999999995905448       -1.7822082711786903E-005   3.3264918804590711E-005
   21.080147743256571        14.999999991018028       -3.6218239029990148E-005   6.9483157834580866E-005
   23.137832607851966        14.999999980855646       -7.1587470269052911E-005   1.4107062810363378E-004
   25.318978564323086        14.999999960273190       -1.3788676354431850E-004   2.7895739164795228E-004
   27.630993278182473        14.999999919601915       -2.5923673678850898E-004   5.3819412843646120E-004
   30.081728874873424        14.999999841084136       -4.7639766243130261E-004   1.0145917908677639E-003
   32.679508607365833        14.999999692814150       -8.5677630823786889E-004   1.8713680991056328E-003
   35.433155123807786        14.999999418664810       -1.5095390708891403E-003   3.3809071699947733E-003
   38.352020431236255        14.999998921897125       -2.6079228755642374E-003   5.9888300455590102E-003
   41.446017657110431        14.999998039052223       -4.4214279180848984E-003   1.0410257963643909E-002
   44.725654716537058        14.999996499230337       -7.3612108378113966E-003   1.7771468801455303E-002
   48.202069999529286        14.999993861892424       -1.2042611297067685E-002   2.9814080098522988E-002
   51.887070199501046        14.999989423818789       -1.9369245658824169E-002   4.9183325757347157E-002
   55.793170411471110        14.999982082806394       -3.0643362266065573E-002   7.9826688023412723E-002
   59.933636636159378        14.999970142130410       -4.7707019790941878E-002  0.12753370781435461     
   64.322530834328944        14.999951035879134       -7.3117955629802833E-002  0.20065166344415744     
   68.974758684388689        14.999920951260711      -0.11036259537656178       0.31101425882071920     
   73.906120205452012        14.999874320282826      -0.16410639597413409       0.47512065479485333     
   79.133363417779137        14.999803150375252      -0.24047856933625991       0.71559922413111321     
   84.674241222845893        14.999696162233224      -0.34738426590667293        1.0629834900377861     
   90.547571696216650        14.999537704150580      -0.49483271668348039        1.5578162067212666     
   96.773301997989648        14.999306416110320      -0.69526499678019971        2.2530812035014662     
   103.37257611786903        14.998973624501955      -0.96386048395867630        3.2169416874601424     
   110.36780668494117        14.998501459873724       -1.3187973396815618        4.5357390271417044     
   117.78275108603765        14.997840705554385       -1.7814400638880288        6.3171790910297334     
   125.64259215119992        14.996928403766734       -2.3764269310717308        8.6936060221014646     
   133.97402368027193        14.995685266959615       -3.1316323047061561        11.825238326807622     
   142.80534110108826        14.994012963984662       -4.0779836026232497        15.903221929430870     
   152.16653756715357        14.991791371554008       -5.2491198935392296        21.152341822970101     
   162.08940582118279        14.988875899085949       -6.6808882731199839        27.833230096090084     
   172.60764617045376        14.985095007603077       -8.4106845454075962        36.243914641497682     
   183.75698094068099        14.980248049154635       -10.476655379050460        46.720570020548138     
   195.57527579712186        14.974103551217571       -12.916789003090988        59.637359023639128     
   208.10266834494917        14.966398060340090       -15.767929703430861        75.405288727069987     
   221.38170444564611        14.956835641364881       -19.064757114704417        94.470045841774407     
   235.45748271238489        14.945088104087496       -22.838774089768794        117.30881993154320     
   250.37780767512800        14.930795999949664       -27.117346613073611        144.42616654461682     
   266.19335213563568        14.913570399504863       -31.922835972130663        176.34900251674748     
   282.95782926377382        14.892995429227071       -37.271857656864469        213.62086017361196     
   300.72817501960026        14.868631515955343       -43.174693861156875        256.79555403476883     
   319.56474152077629        14.840019260750333       -49.634877759017769        306.43043179378662     
   339.53150201202288        14.806683842590495       -56.648958672748051        363.07939046653468     
   359.53150201202288        14.770418945096043       -63.786883569212080        426.86627403574676     
   379.53150201202288        14.731433661356823       -70.989578760459793        497.85585279620653     
   399.53150201202288        14.689887804512260       -78.216366068972462        576.07221886517902     
   419.53150201202288        14.645943570393305       -85.432650433222989        661.50486929840201     
   439.53150201202288        14.599762604070129       -92.609268054669457        754.11413735307144     
   459.53150201202288        14.551503795327882       -99.721855502663360        853.83599285573484     
   479.53150201202288        14.501321658853609       -106.75025910495927        960.58625196069409     
   499.53150201202288        14.449365179955437       -113.67799332200146        1074.2642452826956     
   519.53150201202288        14.395777028589240       -120.49175085893411        1194.7559961416298     
   539.53150201202288        14.340693062764764       -127.18096405662099        1321.9369601982507     
   559.53150201202288        14.284242057356719       -133.73741537643554        1455.6743755746863     
   579.53150201202288        14.226545606531435       -140.15489386072420        1595.8292694354104     
   599.53150201202288        14.167718157968634       -146.42889396143104        1742.2581633968414     
   619.53150201202288        14.107867145250896       -152.55635291209842        1894.8145163089398     
   639.53150201202288        14.047093191542807       -158.53542278531873        2053.3499390942584     
   659.53150201202288        13.985490363237425       -164.36527347510503        2217.7152125693633     
   679.53150201202288        13.923146456804464       -170.04592303244843        2387.7611356018119     
   699.53150201202288        13.860143305792345       -175.57809203104301        2563.3392276328550     
   719.53150201202288        13.796557097949247       -180.96307892289670        2744.3023065557518     
   739.53150201202288        13.732458694852895       -186.20265364005812        2930.5049601958099     
   759.53150201202288        13.667913948375276       -191.29896699379643        3121.8039271896064     
   779.53150201202288        13.602984009843055       -196.25447370576597        3318.0584008953724     
   799.53150201202288        13.537725628961278       -201.07186717016003        3519.1302680655326     
   819.53150201202288        13.472191440508675       -205.75402428811074        3724.8842923536436     
   839.53150201202288        13.406430237540061       -210.30395893379935        3935.1882512874431     
   859.53150201202288        13.340487230387161       -214.72478280606688        4149.9130340935099     
   879.53150201202288        13.274404291169773       -219.01967259084273        4368.9327066843525     
   899.53150201202288        13.208220183841970       -223.19184250970810        4592.1245491940608     
   919.53150201202288        13.141970780027204       -227.24452146059431        4819.3690706546549     
   939.53150201202288        13.075689261059416       -231.18093406986765        5050.5500047245223     
   959.53150201202288        13.009406306759715       -235.00428507269092        5285.5542897972136     
   979.53150201202288        12.943150271551385       -238.71774652271878        5524.2720363199323     
   999.53150201202288        12.876947348559813       -242.32444740458652        5766.5964837245192     
   1019.5315020120229        12.810821722364398       -245.82746528443104        6012.4239490089503     
   1039.5315020120229        12.744795711073916       -249.22981968698480        6261.6537686959355     
   1059.5315020120229        12.678889898388618       -252.53446693315229        6514.1882356290880     
   1079.5315020120229        12.613123256295104       -255.74429621088692        6769.9325318399751     
   1099.5315020120229        12.547513259016903       -258.86212668537917        7028.7946585253540     
   1119.5315020120229        12.482075988816383       -261.89070548309491        7290.6853640084491     
   1139.5315020120229        12.416826234213712       -264.83270640838987        7555.5180704168388     
   1159.5315020120229        12.351777581157428       -267.69072927222686        7823.2087996890659     
   1179.5315020120229        12.286942497649633       -270.46729973030375        8093.6760994193701     
   1199.5315020120229        12.222332412297339       -273.16486954301905        8366.8409689623895     
   1219.5315020120229        12.157957787230901       -275.78581718270937        8642.6267861450997     
   1239.5315020120229        12.093828185800724       -278.33244872470436        8920.9592348698043     
   1259.5315020120229        12.029952335435098       -280.80699896819067        9201.7662338379942     
   1279.5315020120229        11.966338186014875       -283.21163274102940        9484.9778665790236     
   1299.5315020120229        11.902992964095329       -285.54844634964195        9770.5263129286650     
   1319.5315020120229        11.839923223281298       -287.81946914095124        10058.345782069617     
   1339.5315020120229        11.777134891039379       -290.02666514855076        10348.372447218168     
   1359.5315020120229        11.714633312209681       -292.17193479951681        10640.544382017684     
   1379.5315020120229        11.652423289460200       -294.25711666213681        10934.801498679821     
   1399.5315020120229        11.590509966499674       -296.28319089353221        11231.084689573352     
   1419.5315020120229        11.528900655379095       -298.24919712696925        11529.333886700322     
   1439.5315020120229        11.467606683258175       -300.15184763341728        11829.485734333739     
   1455.5315020120229        11.418780498608371       -301.63144198751451        12131.117176321253     
   1472.4915020120229        11.367270570714261       -303.14951130187131        12434.266687623125     
   1490.4691020120229        11.312959554199512       -304.70003260558877        12738.966720228715     
   1509.5253580120229        11.255732351053510       -306.27539725504266        13045.242117483758     
   1529.5253580120229        11.196069035223630       -307.85124704852285        13353.093364532280     
   1549.5253580120229        11.136825134203169       -309.34740970950912        13662.440774241790     
   1569.5253580120229        11.078022246055870       -310.76217324348653        13973.202947485277     
   1589.5253580120229        11.019681618826054       -312.09444726084001        14285.297394746118     
   1609.5253580120229        10.961823573163638       -313.34388079173857        14598.641275537857     
   1629.5253580120229        10.904466979717304       -314.51089661643238        14913.152172154289     
   1649.5253580120229        10.847628844163006       -315.59665501995693        15228.748827174246     
   1669.5253580120229        10.791324004709173       -316.60298475709089        15545.351811931338     
   1689.5253580120229        10.735564945508438       -317.53228637712652        15862.884098308465     
   1709.5253580120229        10.680361724834116       -318.38741489268921        16181.271513201154     
   1729.5253580120229        10.625722003450381       -319.17155732064521        16500.443070521800     
   1749.5253580120229        10.571651147864312       -319.88812035671100        16820.331190878511     
   1769.5253580120229        10.518152380557456       -320.54063717389289        17140.871828052404     
   1789.5253580120229        10.465226953083210       -321.13269578716881        17462.004523839572     
   1809.5253580120229        10.412874324373350       -321.66788720723667        17783.672411046809     
   1829.5253580120229        10.361092326794413       -322.14977561438286        18105.822186661193     
   1849.5253580120229        10.309877318179897       -322.58187803274689        18428.404064693939     
   1869.5253580120229        10.259224323706846       -322.96764682569363        18751.371711519634     
   1889.5253580120229        10.209127167813605       -323.31045639644066        19074.682167916075     
   1909.5253580120229        10.159578593468449       -323.61359608205618        19398.295763998132     
   1929.5253580120229        10.110570366166280       -323.88026927400915        19722.176033272142     
   1949.5253580120229        10.062093361490527       -324.11359747449796        20046.289630746640     
   1969.5253580120229        10.014137636487980       -324.31662773155222        20370.606258478190     
   1989.5253580120229        9.9666924859228914       -324.49234221120855        20695.098600689398     
   2009.5253580120229        9.9197464847144712       -324.64366913629004        21019.742269825689     
   2029.5253580120229        9.8732875176961468       -324.77349475299212        21344.515764578682     
   2049.5253580120229        9.8273027974159497       -324.88467634448551        21669.400440923167     
   2069.5253580120229        9.7817786253679611       -324.98028758534235        21994.380728508509     
   2089.5253580120229        9.7366992197301538       -325.06455921479403        22319.445287723305     
   2109.5253580120229        9.6920447696655572       -325.14387334382906        22644.589161067135     
   2127.5253580120229        9.6521829415753491       -325.21628700167219        22969.805448068808     
   2146.6053580120229        9.6102757666119363       -325.29846229141668        23295.103910360223     
   2166.6053580120229        9.5667067379472037       -325.39162930956383        23620.495539669788     
   2186.6053580120229        9.5234807075812569       -325.48897168302176        23945.984511352810     
   2206.6053580120229        9.4805893599116544       -325.58466736228223        24271.569178715094     
   2226.6053580120229        9.4380319380500932       -325.67128863301031        24597.240467348103     
   2246.6053580120229        9.3958141301038776       -325.74111615316099        24922.981583501263     
   2266.6053580120229        9.3539463197010360       -325.78714948995287        25248.768732991215     
   2286.6053580120229        9.3124416777871044       -325.80372146121903        25574.572454452435     
   2306.6053580120229        9.2713144233195806       -325.78675672011815        25900.359211172552     
   2326.6053580120229        9.2305784333958716       -325.73376071243132        26226.092971884984     
   2346.6053580120229        9.1902462538600034       -325.64364578006462        26551.736617665047     
   2366.6053580120229        9.1503284822069482       -325.51648061820578        26877.253098283254     
   2386.6053580120229        9.1108334575499725       -325.35322142503009        27202.606319708284     
   2406.6053580120229        9.0717671821294985       -325.15545971356283        27527.761779421846     
   2426.6053580120229        9.0331334031454471       -324.92520484991360        27852.686984271761     
   2446.6053580120229        8.9949337948910522       -324.66470796794800        28177.351692239710     
   2466.6053580120229        8.9571681945770152       -324.37632678728824        28501.728019026999     
   2486.6053580120229        8.9198348581453732       -324.06242695080232        28825.790445977800     
   2506.6053580120229        8.8829307133957620       -323.72531383685566        29149.515759814654     
   2526.6053580120229        8.8464515963884889       -323.36718857324661        29472.882948387902     
   2546.6053580120229        8.8103924633965374       -322.99012255266535        29795.873070940568     
   2566.6053580120229        8.7747475747542349       -322.59604589417592        30118.469116834745     
   2586.6053580120229        8.7395106398655376       -322.18675539922566        30440.655872233972     
   2606.6053580120229        8.7046749207775598       -321.76393522082600        30762.419807454797     
   2626.6053580120229        8.6702333044263753       -321.32917730625280        31083.748984761049     
   2646.6053580120229        8.6361783586099001       -320.88399347906102        31404.632978240108     
   2666.6053580120229        8.6025023831452021       -320.42981868533803        31725.062796925446     
   2686.6053580120229        8.5691974606314343       -319.96800965333136        32045.030806578776     
   2706.6053580120229        8.5362555031104321       -319.49984612771721        32364.530652706493     
   2726.6053580120229        8.5036682955281364       -319.02653158504233        32683.557184291534     
   2746.6053580120229        8.4714275384853792       -318.54919181835874        33002.106376109892     
   2766.6053580120229        8.4395248924257622       -318.06887123761788        33320.175247347514     
   2786.6053580120229        8.4079520243653185       -317.58652752978441        33637.761774877297     
   2806.6053580120229        8.3767006570675431       -317.10302573745037        33954.864800614749     
   2826.6053580120229        8.3457626194580090       -316.61913297696321        34271.483933591713     
   2846.6053580120229        8.3151298962872353       -316.13551490344901        34587.619448495163     
