 #              _____________________  _______________________             #
 #              ___  __ \__  __ \_  / / /_  /___  ____/_  ___/             #
 #              __  / / /_  /_/ /  / / /_  __/_  __/  _____ \              #
 #              _  /_/ /_  _, _// /_/ / / /_ _  /___  ____/ /              #
 #              /_____/ /_/ |_| \____/  \__/ /_____/  /____/               #
 #                                                                         #
  
 #        time                      T            heat flux [W.L-2]   in    x              directions   cumulative flux
 #-----------------------------------------------------------------------------------------------

   0.0000000000000000        20.000000000000000       -0.0000000000000000        0.0000000000000000     
   1.0000000000000000        20.000000000000000       -6.7785776991513509E-012   6.7785776991513509E-012
   1.9540000000000002        20.000000000000000       -5.1969095693493766E-011   5.8747673392645122E-011
   2.8641160000000001        19.999999999999979       -2.2595258997171315E-010   2.8470026336435829E-010
   3.8288389600000006        19.999999999999890       -9.3318419658319459E-010   1.2178844599475530E-009
   4.8514452976000007        19.999999999999542       -3.4909675150632977E-009   4.7088519750108507E-009
   5.9354080154560007        19.999999999998302       -1.1855732395819766E-008   1.6564584370830617E-008
   7.0844084963833609        19.999999999994198       -3.6947767512213551E-008   5.3512351883044168E-008
   8.3023490061663630        19.999999999981672       -1.0687331553104741E-007   1.6038566741409157E-007
   9.5933659465363448        19.999999999945850       -2.8972770849362675E-007   4.5011337590771832E-007
   10.961843903328527        19.999999999849081       -7.4215370917022532E-007   1.1922670850779437E-006
   12.412430537528239        19.999999999600451       -1.8084341491904084E-006   3.0007012342683518E-006
   13.950052369779934        19.999999998989573       -4.2153116415781935E-006   7.2160128758465453E-006
   15.579931511966731        19.999999997547718       -9.4420853667512253E-006   1.6658098242597771E-005
   17.307603402684734        19.999999994266062       -2.0401979019207195E-005   3.7060077261804967E-005
   19.138935606845820        19.999999987040859       -4.2660363079541565E-005   7.9720440341346532E-005
   21.080147743256571        19.999999971611633       -8.6553609458242441E-005   1.6627404979958899E-004
   23.137832607851966        19.999999939582391       -1.7077892360501586E-004   3.3705297340460487E-004
   25.318978564323086        19.999999874826468       -3.2832464477540501E-004   6.6537761818000988E-004
   27.630993278182473        19.999999747111403       -6.1603000588260804E-004   1.2814076240626180E-003
   30.081728874873424        19.999999501056827       -1.1296307682075596E-003   2.4110383922701776E-003
   32.679508607365833        19.999999037440539       -2.0268861181139517E-003   4.4379245103841293E-003
   35.433155123807786        19.999998182249094       -3.5623031530072841E-003   8.0002276633914134E-003
   38.352020431236255        19.999996636551618       -6.1380659269366792E-003   1.4138293590328092E-002
   41.446017657110431        19.999993897057919       -1.0376986771835850E-002   2.4515280362163942E-002
   44.725654716537058        19.999989132900854       -1.7224528556455922E-002   4.1739808918619864E-002
   48.202069999529286        19.999980998584512       -2.8088033391279042E-002   6.9827842309898913E-002
   51.887070199501046        19.999967356072297       -4.5022001261863925E-002  0.11484984357176284     
   55.793170411471110        19.999944870708255       -7.0968288479529990E-002  0.18581813205129283     
   59.933636636159378        19.999908436356677      -0.11005908931289038       0.29587722136418321     
   64.322530834328944        19.999850375404986      -0.16798816396113514       0.46386538532531835     
   68.974758684388689        19.999759350080978      -0.25245167133466351       0.71631705665998191     
   73.906120205452012        19.999618914276866      -0.37365397355784430        1.0899710302178263     
   79.133363417779137        19.999405631524873      -0.54486593301168251        1.6348369632295088     
   84.674241222845893        19.999086686976625      -0.78301384809585484        2.4178508113253638     
   90.547571696216650        19.998616931302610       -1.1092669426568167        3.5271177539821803     
   96.773301997989648        19.997935314193921       -1.5495812573779135        5.0766990113600938     
   103.37257611786903        19.996960695822473       -2.1351491968888623        7.2118482082489557     
   110.36780668494117        19.995587066360791       -2.9026983230114811        10.114546531260437     
   117.78275108603765        19.993678255246756       -3.8945816644577778        14.009128195718215     
   125.64259215119992        19.991062270466720       -5.1586059606998464        19.167734156418064     
   133.97402368027193        19.987525469290983       -6.7475544660941846        25.915288622512250     
   142.80534110108826        19.982806819885528       -8.7183770887187322        34.633665711230982     
   152.16653756715357        19.976592561537981       -11.131041801921603        45.764707513152587     
   162.08940582118279        19.968511603387800       -14.047065753159364        59.811773266311953     
   172.60764617045376        19.958132011969305       -17.527770013543901        77.339543279855860     
   183.75698094068099        19.944958922776443       -21.632325855784050        98.971869135639906     
   195.57527579712186        19.928434169134629       -26.415680246634700        125.38754938227461     
   208.10266834494917        19.907937854462411       -31.926461716614519        157.31401109888913     
   221.38170444564611        19.882792005890551       -38.204973449609007        195.51898454849814     
   235.45748271238489        19.852266344916430       -45.281377738716401        240.80036228721454     
   250.37780767512800        19.815586102618497       -53.174165255483409        293.97452754269796     
   266.19335213563568        19.771941701797811       -61.888985112746767        355.86351265544471     
   282.95782926377382        19.720500034585690       -71.417889355544617        427.28140201098932     
   300.72817501960026        19.660416988414294       -81.739020544952510        509.02042255594182     
   319.56474152077629        19.590850820483798       -92.816745818016983        601.83716837395878     
   335.53814991377357        19.527870169982023       -102.25033326203210        704.08750163599086     
   352.46996281035069        19.456925781512005       -112.23431276256315        816.32181439855401     
   369.40177570692782        19.382098348015248       -122.15113255946108        938.47294695801509     
   386.33358860350495        19.303690430067054       -131.95676230583842        1070.4297092638535     
   403.26540150008208        19.222002076647371       -141.61339300235949        1212.0431022662131     
   420.19721439665921        19.137329079769973       -151.08829952071147        1363.1314017869245     
   438.14493606703093        19.044566191433088       -160.89411401437155        1524.0255158012960     
   456.09265773740265        18.949130250364380       -170.43319593735495        1694.4587117386509     
   474.04037940777437        18.851347962169822       -179.68069275695348        1874.1394044956044     
   491.98810107814609        18.751535350490322       -188.61578029188377        2062.7551847874884     
   509.93582274851781        18.649995673003009       -197.22218579139567        2259.9773705788839     
   527.88354441888953        18.547017115772736       -205.48858138905689        2465.4659519679408     
   546.90812938948352        18.436563203196744       -213.86176711410471        2679.3277190820454     
   567.07418945831319        18.318375017408012       -222.29870016384052        2901.6264192458857     
   588.45021313127268        18.192225244467426       -230.75573082406089        3132.3821500699464     
   611.10879822460970        18.057915612143212       -239.19189862703743        3371.5740486969839     
   635.12689842354700        17.915265923707032       -247.57458935450705        3619.1486380514912     
   641.80087133361019        17.875613400007687       -249.86107175059715        3869.0097098020883     
   648.87528261827720        17.833574601562312       -252.23817918456578        4121.2478889866543     
   655.94969390294420        17.791536649638545       -254.56984462270736        4375.8177336093613     
   663.44856986469119        17.746986081830446       -256.99177852776035        4632.8095121371216     
   671.39737838414305        17.699782791846573       -259.50499859505084        4892.3145107321725     
   679.82311541476201        17.649780309807898       -262.11036009289455        5154.4248708250670     
   688.75439666721809        17.596825694481709       -264.80848654084144        5419.2333573659089     
   698.22155479482160        17.540759522579620       -267.59964835741357        5686.8330057233225     
   708.25674241008130        17.481416036287740       -270.48358160905656        5957.3165873323787     
   718.89404128225658        17.418623519108476       -273.45924709474349        6230.7758344271224     
   730.16957808676239        17.352204970412888       -276.52454027623270        6507.3003747033554     
   742.12164709953856        17.281979137769589       -279.67597376807635        6786.9763484714313     
   754.79084025308123        17.207761940848073       -282.90836502330603        7069.8847134947373     
   768.22018499583646        17.129368278287487       -286.21456437767966        7356.0992778724167     
   781.64952973859170        17.051278360355276       -289.40162282743552        7645.5009006998525     
   795.07887448134693        16.973519436438451       -292.47042546363093        7937.9713261634834     
   808.50821922410216        16.896118500323283       -295.42196578533111        8233.3932919488143     
   821.93756396685740        16.819101858165940       -298.25753883260052        8531.6508307814147     
   835.36690870961263        16.742494581746289       -300.97894106746605        8832.6297718488804     
   849.60201413693324        16.661778349585042       -303.73837047389213        9136.3681423227717     
   864.69122588989308        16.576795588182268       -306.52743772904830        9442.8955800518197     
   880.68579034803054        16.487389884989760       -309.33805697310021        9752.2336370249195     
   897.64002867365616        16.393405611241761       -312.16266289854991        10064.396299923470     
   915.61152129881941        16.294687391235289       -314.99435502727488        10379.390654950745     
   934.66130348149238        16.191079172670921       -317.82719744311146        10697.217852393856     
   954.85407259512579        16.082421961841856       -320.65715183045620        11017.875004224312     
   976.25840785557716        15.968548242122791       -323.48430304664032        11341.359307270952     
   998.94700323165569        15.849275623998864       -326.31340574664841        11667.672713017600     
   1019.3667390701263        15.743059435107797       -328.74118271402534        11996.413895731626     
   1039.7864749085970        15.637936154483342       -331.06445453616271        12327.478350267789     
   1061.4313948973759        15.527692503195809       -333.42052196420462        12660.898872231994     
   1083.0763148861547        15.418601877202089       -335.67553575248542        12996.574407984479     
   1104.7212348749335        15.310640553003321       -337.83093752564815        13334.405345510128     
   1126.3661548637124        15.203794116032491       -339.88652174728867        13674.291867257416     
   1148.0110748524912        15.098054837786524       -341.84203576318703        14016.133903020604     
   1170.9546900405969        14.987211937602780       -343.80274299811805        14359.936646018721     
   1193.8983052287026        14.877608284533492       -345.65284817796106        14705.589494196682     
   1218.2185373280945        14.762821504461961       -347.49189513768778        15053.081389334369     
   1243.9979833534499        14.642715484973328       -349.30664148387467        15402.388030818243     
   1271.3241961403266        14.517171613497231       -351.08107743838804        15753.469108256631     
   1300.2899816944159        14.386092738933812       -352.79725587509336        16106.266364131725     
   1329.2557672485052        14.257016928703448       -354.35486848318243        16460.621232614907     
   1358.2215528025945        14.129924774788698       -355.77152427110138        16816.392756886009     
   1388.9252854899291        13.997380967821663       -357.14035714737798        17173.533114033387     
   1421.4712421385041        13.859226211028883       -358.47384033466602        17532.006954368055     
   1455.9699561859934        13.715238433526570       -359.80158848062297        17891.808542848677     
   1492.5385930763321        13.565180671312167       -361.13431396184023        18252.942856810518     
   1529.1072299666707        13.417590716236113       -362.37469057729038        18615.317547387807     
   1565.6758668570094        13.272477915986233       -363.48173784166880        18978.799285229477     
   1604.4386219607684        13.121543274455764       -364.46114933257951        19343.260434562057     
   1643.2013770645274        12.973618718944756       -365.22272079918156        19708.483155361238     
   1681.9641321682864        12.828737848900369       -365.79422431478548        20074.277379676023     
   1720.7268872720454        12.686833458050506       -366.22190270742891        20440.499282383451     
   1761.8154076820299        12.539584276088569       -366.57032420845582        20807.069606591907     
   1805.3692393166136        12.386718446458126       -366.90571730380589        21173.975323895713     
   1851.5363008492723        12.227860355049515       -367.28246606488176        21541.257789960593     
   1897.7033623819309        12.071885109482839       -367.67037765182397        21908.928167612416     
   1943.8704239145895        11.918678256828994       -368.02089046388539        22276.949058076301     
   1990.0374854472482        11.768245141833592       -368.28768747448851        22645.236745550788     
   2036.2045469799068        11.620561183310450       -368.47190252484734        23013.708648075637     
   2082.3716085125657        11.475612611721136       -368.56737069240592        23382.276018768043     
   2128.5386700452245        11.333407992804625       -368.56372673465836        23750.839745502701     
   2177.4757552698429        11.185792727195663       -368.43385692156625        24119.273602424266     
   2226.4128404944613        11.041311357111574       -368.18130102402438        24487.454903448292     
   2275.3499257190797        10.899678324497895       -367.91447689516366        24855.369380343454     
   2324.2870109436981        10.760573624572359       -367.67923453489527        25223.048614878349     
   2376.1603212817931        10.615790864823127       -367.42797672846507        25590.476591606814     
   2428.0336316198882        10.473698838822099       -367.11295851171457        25957.589550118530     
   2479.9069419579832        10.334470686227771       -366.66919559942181        26324.258745717951     
   2531.7802522960783        10.198360194904193       -366.04440555825755        26690.303151276210     
   2586.7659612544594        10.057784270231792       -365.18041393194659        27055.483565208157     
   2641.7516702128405        9.9207465350264741       -364.22384042761990        27419.707405635778     
   2696.7373791712216        9.7869531270725609       -363.24419943242327        27782.951605068200     
   2755.0222306671053        9.6483415645327462       -362.24487236154715        28145.196477429748     
   2816.8041732527422        9.5042612133560613       -361.35300616446420        28506.549483594212     
   2882.2930323935175        9.3542383198885659       -360.55237476767894        28867.101858361890     
   2947.7818915342928        9.2068830855456021       -359.77960371113181        29226.881462073023     
   3017.2000822235145        9.0539724208115526       -358.87412588965981        29585.755587962682     
   3086.6182729127363        8.9044069628452753       -357.90368473147902        29943.659272694160     
   3156.0364636019581        8.7578435711613896       -356.97636649697824        30300.635639191139     
   3225.4546542911798        8.6143881371979383       -355.98993081950897        30656.625570010649     
   3299.0379364217547        8.4659363388678059       -354.84427101002660        31011.469841020677     
   3372.6212185523295        8.3199317475202985       -353.94338533490867        31365.413226355584     
   3446.2045006829044        8.1766767687307222       -352.98842853954397        31718.401654895129     
   3519.7877828134792        8.0368007402161492       -351.83418943498918        32070.235844330120     
   3593.3710649440541        7.9008651725905050       -350.43681026271616        32420.672654592836     
   3666.9543470746289        7.7692508394296524       -348.80163527272498        32769.474289865560     
   3744.9526261330384        7.6344342509058549       -346.92932450216858        33116.403614367729     
   3822.9509051914479        7.5023797259656870       -345.43040494916158        33461.834019316891     
   3900.9491842498574        7.3723715391586602       -344.15728701564609        33805.991306332537     
   3978.9474633082668        7.2446290178814259       -342.89442703617505        34148.885733368712     
   4056.9457423666763        7.1193592835659860       -341.59617820123680        34490.481911569950     
   4134.9440214250853        6.9967598169170166       -340.24076977180994        34830.722681341758     
   4212.9423004834944        6.8768934985413113       -338.84063345098053        35169.563314792736     
   4290.9405795419034        6.7598589505969748       -337.38277878167520        35506.946093574414     
   4368.9388586003124        6.6449934754573015       -336.06092844911598        35843.007022023528     
   4446.9371376587214        6.5325279885908536       -334.69197119056889        36177.698993214100     
   4529.6153134606357        6.4158706983294200       -333.23081917242342        36510.929812386523     
   4612.2934892625499        6.3011771760391735       -331.89136438154549        36842.821176768070     
   4694.9716650644641        6.1863486566923287       -331.11286803119401        37173.934044799265     
   4782.6105314144925        6.0670887164759657       -329.87802364640618        37503.812068445674     
   4870.2493977645208        5.9519061507457716       -328.19243490045312        37832.004503346128     
   4957.8882641145492        5.8411180170779842       -326.25187736427722        38158.256380710409     
   5050.7854624455795        5.7281631489456322       -324.10128777376860        38482.357668484176     
   5143.6826607766097        5.6171576675625818       -322.40745512511364        38804.765123609286     
   5236.5798591076400        5.5074868121121421       -320.93009340041914        39125.695217009707     
   5335.0508893385322        5.3937364178849876       -319.25191520597400        39444.947132215682     
   5433.5219195694244        5.2828327398677706       -317.51336629972673        39762.460498515407     
   5531.9929498003166        5.1746287148355599       -315.79749097791182        40078.257989493322     
   5630.4639800312088        5.0688170489774125       -314.15234492708021        40392.410334420405     
