 #              _____________________  _______________________             #
 #              ___  __ \__  __ \_  / / /_  /___  ____/_  ___/             #
 #              __  / / /_  /_/ /  / / /_  __/_  __/  _____ \              #
 #              _  /_/ /_  _, _// /_/ / / /_ _  /___  ____/ /              #
 #              /_____/ /_/ |_| \____/  \__/ /_____/  /____/               #
 #                                                                         #
  
 #        time                      T            heat flux [W.L-2]   in    x              directions   cumulative flux
 #-----------------------------------------------------------------------------------------------

   0.0000000000000000        20.000000000000000       -0.0000000000000000        0.0000000000000000     
   1.0000000000000000        19.140981250572679       -265.83015293321188        265.83015293321188     
   1.9540000000000002        18.390460946572233       -492.20335975744052        758.03351269065240     
   2.8641160000000001        17.731198244879494       -685.56419232312055        1443.5977050137731     
   3.8288389600000006        17.087768263057349       -868.22569623259119        2311.8234012463645     
   4.8514452976000007        16.461576951959604       -1039.4440535812273        3351.2674548275918     
   5.9354080154560007        15.853774381473730       -1198.6540366903405        4549.9214915179327     
   7.0844084963833609        15.265239746906722       -1345.4696392664714        5895.3911307844046     
   8.3023490061663630        14.696573546395220       -1479.6810276742870        7375.0721584586918     
   9.5933659465363448        14.148097270852798       -1601.2479089710412        8976.3200674297332     
   10.961843903328527        13.619860631622462       -1710.2894954819774        10686.609562911710     
   12.412430537528239        13.111656021675019       -1807.0713416803030        12493.680904592013     
   13.950052369779934        12.623039583441672       -1891.9894340928843        14385.670338684897     
   15.579931511966731        12.153357960342667       -1965.5520218665529        16351.222360551450     
   17.307603402684734        11.701779559024754       -2028.3597751004693        18379.582135651919     
   19.138935606845820        11.267328962104814       -2081.0849394701122        20460.667075122030     
   21.080147743256571        10.848923019907271       -2124.4502086624907        22585.117283784522     
   23.137832607851966        10.445407122380704       -2159.2080520807876        24744.325335865309     
   25.318978564323086        10.055590211337652       -2186.1212086472324        26930.446544512542     
   27.630993278182473        9.6782772343088190       -2205.9449869581026        29136.391531470646     
   30.081728874873424        9.3122979542587103       -2219.4119007791087        31355.803432249755     
   32.679508607365833        8.9565312980671248       -2227.2190246731448        33583.022456922903     
   35.433155123807786        8.6099247303742779       -2230.0182889353628        35813.040745858263     
   38.352020431236255        8.2715084546136826       -2228.4097599338997        38041.450505792163     
   41.446017657110431        7.9404045456199093       -2222.9377861721641        40264.388291964329     
   44.725654716537058        7.6158313855735100       -2214.0897456630141        42478.478037627341     
   48.202069999529286        7.2971039886771072       -2202.2970176657554        44680.775055293096     
   51.887070199501046        6.9836309471771365       -2187.9377287157963        46868.712784008894     
   55.793170411471110        6.6749088066149636       -2171.3407918109410        49040.053575819838     
   59.933636636159378        6.3705146834437887       -2152.7907666028045        51192.844342422643     
   64.322530834328944        6.0700978821628997       -2132.5331114250116        53325.377453847657     
   68.974758684388689        5.7733711659973919       -2110.7794659883780        55436.156919836038     
   73.906120205452012        5.4801022021318753       -2087.7126861069669        57523.869605943008     
   79.133363417779137        5.1901055575141744       -2063.4914384193571        59587.361044362362     
   84.674241222845893        4.9032354805443799       -2038.2542446145037        61625.615288976864     
   90.547571696216650        4.6193795803244733       -2012.1229343498485        63637.738223326713     
   96.773301997989648        4.3384534167567068       -1985.4153929123356        65623.153616239055     
   103.37257611786903        4.0603959450358413       -1958.1147889700628        67581.268405209121     
   110.36780668494117        3.7851657161175272       -1930.1403761756123        69511.408781384729     
   117.78275108603765        3.5127660343235489       -1901.5694512564978        71412.978232641224     
   125.64259215119992        3.2431888551804580       -1872.4824424567523        73285.460675097973     
   133.97402368027193        2.9764063033346888       -1842.9669487267481        75128.427623824726     
   142.80534110108826        2.7124159897813165       -1813.0971754754478        76941.524799300169     
   152.16653756715357        2.4512317952363150       -1782.9380694855183        78724.462868785689     
   162.08940582118279        2.1928782579451074       -1752.5478091932039        80477.010677978891     
   172.60764617045376        1.9373870373274991       -1721.9793557801322        82198.990033759022     
   183.75698094068099        1.6847946264456573       -1691.2814434424349        83890.271477201459     
   195.57527579712186        1.4351408004088571       -1660.4992397082842        85550.770716909741     
   208.10266834494917        1.1884674959557706       -1629.6748105985328        87180.445527508273     
   221.38170444564611       0.94481794773870642       -1598.8474665638396        88779.292994072108     
   235.45748271238489       0.70423598421682954       -1568.0540311377529        90347.347025209863     
   250.37780767512800       0.46676542991643855       -1537.3290556790303        91884.676080888894     
   266.19335213563568       0.23244958472577304       -1506.7049939175092        93391.381074806399     
   282.95782926377382        1.3307636053556671E-003  -1476.2123451445357        94867.593419950936     
   300.72817501960026      -0.22655011317692875       -1847.3646803429972        96714.958100293938     
   319.56474152077629      -0.45115388554060143       -1562.9456439845951        98277.903744278534     
   335.53814991377357      -0.61921484992183307       -1450.5812252555659        99728.484969534096     
   352.46996281035069      -0.59931266187157295       -1395.4957083043084        101123.98067783841     
   369.40177570692782      -0.60600918954513927       -1374.1694895236328        102498.15016736204     
   386.33358860350495      -0.61933988084376668       -1282.7237932078683        103780.87396056991     
   403.26540150008208      -0.63590695656422702       -1268.5494770466148        105049.42343761653     
   420.19721439665921      -0.65757309086560123       -1263.9432138733878        106313.36665148991     
   438.14493606703093      -0.68784536146126785       -1260.9081268953230        107574.27477838522     
   456.09265773740265      -0.72649151607898577       -1248.8233362771332        108823.09811466235     
   474.04037940777437      -0.77064585078370484       -1225.3074025995700        110048.40551726193     
   491.98810107814609      -0.81693425932353658       -1198.5254901645226        111246.93100742645     
   509.93582274851781      -0.90224533336710866       -1189.0494443005575        112435.98045172701     
   527.88354441888953      -0.94978928049782452       -1169.9358521644872        113605.91630389150     
   546.90812938948352       -1.0109378088840015       -1157.7897787377160        114763.70608262921     
   567.07418945831319       -1.0756348950561256       -1147.7980233212206        115911.50410595043     
   588.45021313127268       -1.1646646428965992       -1142.1109695127834        117053.61507546321     
   611.10879822460970       -1.3058429313519566       -1145.1569101360060        118198.77198559922     
   635.12689842354700       -1.5592327314590471       -1168.2272501495390        119366.99923574875     
   641.80087133361019       -1.6452150914369994       -1176.7155288101378        120543.71476455888     
   648.87528261827720       -1.6404078648259852       -1186.6164944117797        121730.33125897066     
   655.94969390294420       -1.6360452239125700       -1200.6485187233625        122930.97977769402     
   663.44856986469119       -1.6321495238677148       -1219.6626970984075        124150.64247479243     
   671.39737838414305       -1.6284114360318884       -1244.3856051028718        125395.02807989530     
   679.82311541476201       -1.6247878485224767       -1275.7408564408277        126670.76893633613     
   688.75439666721809       -1.6214281951708347       -1314.7451312369492        127985.51406757308     
   698.22155479482160       -1.6186293438274002       -1362.3200068465314        129347.83407441962     
   708.25674241008130       -1.6168144495306722       -1418.9486667051092        130766.78274112473     
   718.89404128225658       -1.6165277821976762       -1484.0993927615625        132250.88213388628     
   730.16957808676239       -1.6184340248167706       -1555.3923172347972        133806.27445112108     
   742.12164709953856       -1.6233052748266228       -1627.6786576534873        135433.95310877456     
   754.79084025308123       -1.6319711019717182       -1692.5797590572381        137126.53286783179     
   768.22018499583646       -1.6457134528206125       -1740.5048133000923        138867.03768113189     
   781.64952973859170       -1.6634826527312465       -1760.3259217110719        140627.36360284296     
   795.07887448134693       -1.6846641813254384       -1751.7999765851989        142379.16357942816     
   808.50821922410216       -1.7084848051160708       -1719.8900989734711        144099.05367840163     
   821.93756396685740       -1.7484177176309443       -1650.2023005415069        145749.25597894314     
   835.36690870961263       -1.7997822528864058       -1585.6069419927728        147334.86292093591     
   849.60201413693324       -1.8737383160451799       -1524.2499581629083        148859.11287909880     
   864.69122588989308       -1.9082822511102735       -1463.6982993416827        150322.81117844049     
   880.68579034803054       -1.9478627796216959       -1407.8721645229218        151730.68334296340     
   897.64002867365616       -1.9943639338837800       -1357.4714242340945        153088.15476719750     
   915.61152129881941       -2.0509876532902931       -1312.7541272658491        154400.90889446335     
   934.66130348149238       -2.1235312720567232       -1273.6353474352959        155674.54424189866     
   954.85407259512579       -2.2232213301309494       -1239.9226384969836        156914.46688039566     
   976.25840785557716       -2.3718738283562666       -1212.0063896661786        158126.47327006183     
   998.94700323165569       -2.3729940805977012       -1208.6968247472139        159335.17009480906     
   1019.3667390701263       -2.3609249353476440       -1226.3221749418915        160561.49226975095     
   1039.7864749085970       -2.3588521127262454       -1263.3743427977631        161824.86661254871     
   1061.4313948973759       -2.3870583747485199       -1313.9583762079542        163138.82498875665     
   1083.0763148861547       -2.4417083490166598       -1364.1807752518530        164503.00576400850     
   1104.7212348749335       -2.5105437620543496       -1404.9918966033920        165907.99766061190     
   1126.3661548637124       -2.6187777021303238       -1429.4542583726695        167337.45191898456     
   1148.0110748524912       -2.6826321069663606       -1442.6674582692349        168780.11937725378     
   1170.9546900405969       -2.7307301078634296       -1449.5872400968276        170229.70661735060     
   1193.8983052287026       -2.7708212108825965       -1448.8471371793889        171678.55375453000     
   1218.2185373280945       -2.8049721004636727       -1440.7289722750197        173119.28272680502     
   1243.9979833534499       -2.8349922983132529       -1426.2994451216966        174545.58217192671     
   1271.3241961403266       -2.8651252104488965       -1407.5007012766705        175953.08287320338     
   1300.2899816944159       -2.9098279127193916       -1393.2171433462415        177346.30001654962     
   1329.2557672485052       -2.9741459612809029       -1380.0570367474295        178726.35705329705     
   1358.2215528025945       -3.0648307983891718       -1360.6196671255127        180086.97672042256     
   1388.9252854899291       -3.1403600653188066       -1357.9680220949476        181444.94474251752     
   1421.4712421385041       -3.2262955876626163       -1344.2876767355447        182789.23241925307     
   1455.9699561859934       -3.3506400836012369       -1319.2871117526568        184108.51953100573     
   1492.5385930763321       -3.3484954226724177       -1295.2790262453548        185403.79855725108     
   1529.1072299666707       -3.3389750383901053       -1265.4553273848012        186669.25388463589     
   1565.6758668570094       -3.3391060215552630       -1234.8991079223567        187904.15299255826     
   1604.4386219607684       -3.3714458074263649       -1212.0450174654936        189116.19801002374     
   1643.2013770645274       -3.4310149639029959       -1197.9167821707138        190314.11479219445     
   1681.9641321682864       -3.5665156758521834       -1181.4416285501279        191495.55642074457     
   1720.7268872720454       -3.6587179744438791       -1175.1988226938224        192670.75524343838     
   1761.8154076820299       -3.7527774169095567       -1168.3311917162689        193839.08643515466     
   1805.3692393166136       -3.8789439541187769       -1154.7478319463544        194993.83426710102     
   1851.5363008492723       -3.8534420022371085       -1137.5635517081359        196131.39781880914     
   1897.7033623819309       -3.8404168262569049       -1113.4966151163246        197244.89443392548     
   1943.8704239145895       -3.8832253845885321       -1091.3537619499848        198336.24819587547     
   1990.0374854472482       -3.9892089159182018       -1067.8697861974863        199404.11798207296     
   2036.2045469799068       -4.1136211779702130       -1046.4870648288820        200450.60504690185     
   2082.3716085125657       -4.1781000642364656       -1032.6958030847222        201483.30084998658     
   2128.5386700452245       -4.2311702186717683       -1022.3572069740741        202505.65805696064     
   2177.4757552698429       -4.2831736278814994       -1013.4316545555220        203519.08971151616     
   2226.4128404944613       -4.3371574468570548       -1003.7460003965936        204522.83571191275     
   2275.3499257190797       -4.4189459906654598       -990.34400285658921        205513.17971476933     
   2324.2870109436981       -4.4876674618909220       -977.36304455895026        206490.54275932827     
   2376.1603212817931       -4.5290423499221859       -968.80109347295411        207459.34385280122     
   2428.0336316198882       -4.5540883850169820       -963.42106611073950        208422.76491891197     
   2479.9069419579832       -4.5695962033266637       -960.10849928804123        209382.87341820000     
   2531.7802522960783       -4.5871018214694841       -956.99196364500028        210339.86538184501     
   2586.7659612544594       -4.6275308196677463       -951.52755378042514        211291.39293562542     
   2641.7516702128405       -4.7106936622880591       -939.53904992226285        212230.93198554768     
   2696.7373791712216       -4.7799921744129685       -926.14504583212033        213157.07703137980     
   2755.0222306671053       -4.8509854863030526       -914.18496807180156        214071.26199945161     
   2816.8041732527422       -4.9347152879000440       -900.77330787225958        214972.03530732388     
   2882.2930323935175       -4.9342170719432641       -894.00051043952249        215866.03581776339     
   2947.7818915342928       -4.9424058866896399       -893.21156294412697        216759.24738070753     
   3017.2000822235145       -4.9862897724803315       -888.83163665770041        217648.07901736523     
   3086.6182729127363       -5.0789509068721967       -876.87311395543043        218524.95213132066     
   3156.0364636019581       -5.1588024438950670       -861.55939871836188        219386.51153003902     
   3225.4546542911798       -5.2140007783679563       -849.44161360315513        220235.95314364217     
   3299.0379364217547       -5.2710415663017685       -839.79416054011892        221075.74730418230     
   3372.6212185523295       -5.3418281608121596       -828.62307939661355        221904.37038357891     
   3446.2045006829044       -5.3853044094294091       -818.20108646571884        222722.57147004461     
   3519.7877828134792       -5.4160498537441777       -811.51059108545178        223534.08206113006     
   3593.3710649440541       -5.4377708144566119       -806.77636232136251        224340.85842345143     
   3666.9543470746289       -5.4602002368144458       -802.85691456167569        225143.71533801311     
   3744.9526261330384       -5.4999061220249281       -797.75724464479981        225941.47258265791     
   3822.9509051914479       -5.5742898897930475       -788.20834202281526        226729.68092468072     
   3900.9491842498574       -5.6349595350478623       -776.04946228351764        227505.73038696425     
   3978.9474633082668       -5.6659990845093278       -767.44198293637317        228273.17236990063     
   4056.9457423666763       -5.6843251977689988       -762.88883189163732        229036.06120179227     
   4134.9440214250853       -5.6985981918861741       -759.94787698975574        229796.00907878202     
   4212.9423004834944       -5.7239555238020312       -756.62662239310191        230552.63570117514     
   4290.9405795419034       -5.7675635249408694       -750.82300959768952        231303.45871077283     
   4368.9388586003124       -5.8198942032904357       -742.48655029208851        232045.94526106492     
   4446.9371376587214       -5.8626802026095000       -733.91097415308752        232779.85623521800     
   4529.6153134606357       -5.9048509223849832       -726.58509305793325        233506.44132827595     
   4612.2934892625499       -5.9459662970646932       -719.21002221137678        234225.65135048731     
   4694.9716650644641       -5.9937749007040892       -711.50418894649238        234937.15553943382     
   4782.6105314144925       -6.0284755640715719       -704.06457899015004        235641.22011842398     
   4870.2493977645208       -6.0522737714511390       -698.62900845635454        236339.84912688035     
   4957.8882641145492       -6.0734340749636191       -694.58737402918848        237034.43650090953     
   5050.7854624455795       -6.1008516881092465       -690.56560058658749        237725.00210149612     
   5143.6826607766097       -6.1451390080652306       -684.72421618625356        238409.72631768239     
   5236.5798591076400       -6.1890168263284426       -676.91584614597787        239086.64216382836     
   5335.0508893385322       -6.2202324973956218       -670.03824302444673        239756.68040685280     
   5433.5219195694244       -6.2397302860032440       -665.17723672944749        240421.85764358225     
   5531.9929498003166       -6.2552141311471141       -661.96171648220366        241083.81936006446     
   5630.4639800312088       -6.2736128202341073       -659.06091079275177        241742.88027085722     
