 #              _____________________  _______________________             #
 #              ___  __ \__  __ \_  / / /_  /___  ____/_  ___/             #
 #              __  / / /_  /_/ /  / / /_  __/_  __/  _____ \              #
 #              _  /_/ /_  _, _// /_/ / / /_ _  /___  ____/ /              #
 #              /_____/ /_/ |_| \____/  \__/ /_____/  /____/               #
 #                                                                         #
  
 #        time                      T            heat flux [W.L-2]   in    x              directions   cumulative flux
 #-----------------------------------------------------------------------------------------------

   0.0000000000000000          278.10449999999997           11.877832341139172          0.0000000000000000     
   1.0000000000000000          278.10412067134968           12.113535650874786          0.0000000000000000     
   2.0060000000000002          278.10376100156350           12.328539394829827          12.328539394829827     
   3.0180360000000004          278.10341944874870           12.524686277364554          24.928373789858568     
   4.0361442160000003          278.10309459631776           12.703658194555061          37.784933214443292     
   5.0603610812960005          278.10278514284357           12.866989532186420          50.884920972348283     
   6.0907232477837763          278.10248989268149           13.016079450857838          64.216209065949585     
   7.1272675872704792          278.10220774730959           13.152203226088700          77.767741676069846     
   8.1700311927941023          278.10193769733621           13.276522709443112          91.529446138609771     
   9.2190513799508675          278.10167881512780           13.390095972487714          105.49215089318841     
   10.274365688230573          278.10143024801482           13.493886189852361          119.64750990953941     
   11.336011882359955          278.10119121203377           13.588769817165547          133.98793312951361     
   12.404027953654115          278.10096098616788           13.675544112938461          148.50652248966321     
   13.478452121376039          278.10073890704876           13.754934053687988          163.19701311859330     
   14.559322834104295          278.10052436408739           13.827598685000417          178.05371932731765     
   15.646678771108920          278.10031679500128           13.894136951541297          193.07148503687409     
   16.740558843735574          278.10011568170830           13.955093044209367          208.24563830994711     
   17.841002196797987          278.09992054656095           14.010961301257762          223.57194967573619     
   18.948048209978776          278.09973094889307           14.062190697161697          239.04659395792387     
   20.061736499238648          278.09954648185732           14.109188950435573          254.66611533471800     
   21.182106918234080          278.09936676952873           14.152326280906989          270.42739537954884     
   22.309199559743483          278.09919146425483           14.191938843071144          286.32762384751800     
   23.443054757101944          278.09902024423297           14.228331861380475          302.36427198943375     
   24.583713085644554          278.09885281129579           14.261782491461091          318.53506819097282     
   25.731215364158420          278.09868888888889           14.292542428707616          334.83797574832681     
   26.885602656343369          278.09852822022447           14.320840285730547          351.27117260643581     
   28.046916272281429          278.09837056659717           14.346883756663605          367.83303289758294     
   29.215197769915118          278.09821570584819           14.370861586532273          384.52211013078409     
   30.390488956534607          278.09806343096557           14.392945361587241          401.33712189317907     
   31.572831890273815          278.09791354880895           14.413291136303584          418.27693593585752     
   32.762268881615455          278.09776587894856           14.432040910070025          435.34055752531395     
   33.958842494905149          278.09762025260818           14.449323967491130          452.52711795212730     
   35.162595549874581          278.09747651170323           14.465258093062443          469.83586409571097     
   36.373571123173825          278.09733450796671           14.479950671787277          487.26614895268159     
   37.591812549912866          278.09719410215320           14.493499685647434          504.81742304362098     
   38.817363425212342          278.09705516331547           14.505994615736734          522.48922662056498     
   40.050267605763615          278.09691756814766           14.517517257456044          540.28118260261544     
   41.290569211398200          278.09678120038751           14.528142456910388          558.19299017338471     
   42.538312626666588          278.09664595027277           14.537938777089865          576.22441898122656     
   43.793542502426590          278.09651171404823           14.546969097793550          594.37530388511118     
   45.056303757441150          278.09637839351660           14.555291158125899          612.64554019717616     
   46.326641579985797          278.09624589563020           14.562958044653756          631.03507937436757     
   47.604601429465710          278.09611413212036           14.570018631818661          649.54392511754702     
   48.890229038042506          278.09598301915952           14.576517978669782          668.17212983950913     
   50.183570412270761          278.09585247705348           14.582497686003164          686.91979146664198     
   51.484671834744383          278.09572242996177           14.587996217729829          705.78705054211730     
   52.793579865752847          278.09559280564281           14.593049190090156          724.77408760157118     
   54.110341344947365          278.09546353522018           14.597689632363581          743.88112079554094     
   55.435003393017048          278.09533455297037           14.601948220573947          763.10840373358565     
   56.767613413375152          278.09520579612877           14.605853488141410          782.45622352899284     
   58.108219093855404          278.09507720471146           14.609432015129352          801.92489902409466     
   59.456868408418536          278.09494872135235           14.612708598621273          821.51477917860893     
   60.813609618869044          278.09482029115361           14.615706405947080          841.22624160484543     
   62.178491276582257          278.09469186154831           14.618447112345612          861.05969123495595     
   63.551562224241749          278.09456338217365           14.620951024957275          881.01555910724335     
   64.932871597587194          278.09443480475443           14.623237194496422          901.09430125974006     
   66.322468827172713          278.09430608299533           14.625323516026802          921.29639772063751     
   67.720403640135743          278.09417717248107           14.627226819061873          941.62235158492501     
   69.126726061976555          278.09404803058408           14.628962949648090          962.07268816978456     
   70.541486418348413          278.09391861637801           14.630546844249150          982.64795424064448     
   71.964735336858510          278.09378889055847           14.631992596063029          1003.3487173002810     
   73.396523748879659          278.09365881536752           14.633313515781776          1024.1755649358365     
   74.836902891372944          278.09352835452427           14.634522185960183          1045.1291042171608     
   76.285924308721178          278.09339747315954           14.635630510602272          1066.2099611418705     
   77.743639854573502          278.09326613775409           14.636649760085481          1087.4187801224593     
   79.210101693700949          278.09313431608132           14.637590612104338          1108.7562235115458     
   80.685362303863158          278.09300197715191           14.638463189472349          1130.2229711623788     
   82.169474477686336          278.09286909116349           14.639277093338801          1151.8197200194313     
   83.662491324552448          278.09273562945100           14.640041435116125          1173.5471837385628     
   85.164466272499766          278.09260156444105           14.640764864627663          1195.4060923324575     
   86.675453070134765          278.09246686960824           14.641455596372227          1217.3971918396917     
   88.195505788555579          278.09233151943323           14.642121433813044          1239.5212440155517     
   89.724678823286908          278.09219548936329           14.642769791148341          1261.7790260417969     
   91.263026896226634          278.09205875577447           14.643407714594291          1284.1713302555313     
   92.810605057603993          278.09192129593583           14.644041900708366          1306.6989638935345     
   94.367468687949611          278.09178308797431           14.644678714523694          1329.3627488525192     
   95.933673500077305          278.09164411084276           14.645324205732095          1352.1635214630439     
   97.509275541077770          278.09150434428778           14.645984123825311          1375.1021322761251     
   99.094331194324241          278.09136376881975           14.646663932455697          1398.1794458619502     
   100.68889718149019          278.09122236568379           14.647368823104811          1421.3963406201985     
   102.29303056457913          278.09108011683202           14.648103726961104          1444.7537085996894     
   103.90678874796660          278.09093700489728           14.648873326980464          1468.2524553281398     
   105.53022948045439          278.09079301316717           14.649682068735567          1491.8934996505866     
   107.16341085733713          278.09064812555988           14.650534170807687          1515.6777735761802     
   108.80639132248115          278.09050232660024           14.651433634445420          1539.6062221325897     
   110.45922967041604          278.09035560139733           14.652384252744682          1563.6798032276331     
   112.12198504843853          278.09020793562269           14.653389619427925          1587.8994875178546     
   113.79471695872917          278.09005931548927           14.654453136884516          1612.2662582831879     
   115.47748526048154          278.08990972773154           14.655578023893106          1636.7811113075079     
   117.17035017204444          278.08975915958649           14.656767322855995          1661.4450547645699     
   118.87337227307670          278.08960759877431           14.658023906941715          1686.2591091094816     
   120.58661250671516          278.08945503348110           14.659350486461840          1711.2243069747042     
   122.31013218175545          278.08930145234166           14.660749615014986          1736.3416930704475     
   124.04399297484598          278.08914684442300           14.662223695644258          1761.6123240897323     
   125.78825693269505          278.08899119920869           14.663774986053982          1787.0372686167530     
   127.54298647429123          278.08883450658305           14.665405604644816          1812.6176070401727     
   129.30824439313696          278.08867675681739           14.667117534419024          1838.3544314678809     
   131.08409385949579          278.08851794055573           14.668912628393615          1864.2488456460092     
   132.87059842265276          278.08835804880101           14.670792614375399          1890.3019648813085     
   134.66782201318867          278.08819707290229           14.672759098911998          1916.5149159656178     
   136.47582894526781          278.08803500454292           14.674813571091516          1942.8888371023002     
   138.29468391893943          278.08787183572781           14.676957407125276          1969.4248778362128     
   140.12445202245306          278.08770755877225           14.679191873667381          1996.1241989851126     
   141.96519873458777          278.08754216629160           14.681518130980461          2022.9879725723379     
   143.81698992699529          278.08737565118969           14.683937236882780          2050.0173817623222     
   145.67989186655726          278.08720800664935           14.686450149406108          2077.2136207967246     
   147.55397121775661          278.08703922612284           14.689057730180849          2104.5778949326163     
   149.43929504506315          278.08686930332220           14.691760746925189          2132.1114203811899     
   151.33593081533354          278.08669823221021           14.694559876483661          2159.8154242481073     
   153.24394640022555          278.08652600699259           14.697455707059364          2187.6911444740808     
   155.16341007862690          278.08635262210890           14.700448741015968          2215.7398297768455     
   157.09439053909867          278.08617807222487           14.703539397123738          2243.9627395935677     
   159.03695688233327          278.08600235222519           14.706728012437745          2272.3611440230575     
   160.99117862362726          278.08582545720611           14.710014844884565          2300.9363237692114     
   162.95712569536903          278.08564738246827           14.713400074945232          2329.6895700840259     
   164.93486844954126          278.08546812351005           14.716883807753870          2358.6221847110432     
   166.92447766023849          278.08528767602110           14.720466074997798          2387.7354798289080     
   168.92602452619994          278.08510603587666           14.724146836202332          2417.0307779938748     
   170.93958067335714          278.08492319913091           14.727925981015956          2446.5094120832891     
   172.96521815739729          278.08473916201177           14.731803330309482          2476.1727252377445     
   175.00300946634167          278.08455392091508           14.735778638104430          2506.0220708036068     
   177.05302752313972          278.08436747239955           14.739851592793343          2536.0588122745312     
   179.11534568827855          278.08417981318200           14.744021818253319          2566.2843232317750     
   181.19003776240822          278.08399094013151           14.748288875990925          2596.6999872854462     
   183.27717798898269          278.08380085026596           14.752652265552241          2627.3071980131785     
   185.37684105691659          278.08360954074647           14.757111426351088          2658.1073588991571     
   187.48910210325809          278.08341700887377           14.761665738729084          2689.1018832719519     
   189.61403671587763          278.08322325208349           14.766314524849848          2720.2921942408188     
   191.75172093617289          278.08302826794244           14.771057050170558          2751.6797246317042     
   193.90223126178992          278.08283205414472           14.775892524292491          2783.2659169216631     
   196.06564464936065          278.08263460850782           14.780820102147688          2815.0522231724194     
   198.24203851725682          278.08243592896872           14.785838884872890          2847.0401049624174     
   200.43149074836035          278.08223601358122           14.790947920818244          2879.2310333176579     
   202.63407969285052          278.08203486051156           14.796146206695973          2911.6264886416425     
   204.84988417100763          278.08183246803554           14.801432688345004          2944.2279606436064     
   207.07898347603367          278.08162883453571           14.806806261492110          2977.0369482650253     
   209.32145737688987          278.08142395849785           14.812265772959238          3010.0549596053897     
   211.57738612115119          278.08121783850783           14.817810021496751          3043.2835118464418     
   213.84685043787809          278.08101047324931           14.823437758465655          3076.7241311745333     
   216.12993154050537          278.08080186150050           14.829147688787716          3110.3783527017104     
   218.42671112974841          278.08059200213154           14.834938471839610          3144.2477203854055     
   220.73727139652689          278.08038089410206           14.840808722056767          3178.3337869460856     
   223.06169502490604          278.08016853645813           14.846757010050867          3212.6381137840240     
   225.40006519505548          278.07995492833027           14.852781863251460          3247.1622708941272     
   227.75246558622581          278.07974006893102           14.858881766531683          3281.9078367787624     
   230.11898037974316          278.07952395755188           14.865055163646897          3316.8763983604940     
   232.49969426202162          278.07930659356197           14.871300457176991          3352.0695508912449     
   234.89469242759375          278.07908797640539           14.877616009899306          3387.4888978612203     
   237.30406058215931          278.07886810559870           14.884000145376824          3423.1360509057731     
   239.72788494565228          278.07864698072945           14.890451148639981          3459.0126297104207     
   242.16625225532619          278.07842460145366           14.896967267221958          3495.1202619148703     
   244.61924976885814          278.07820096749413           14.903546711578736          3531.4605830145820     
   247.08696526747130          278.07797607863773           14.910187656402410          3568.0352362620320     
   249.56948705907612          278.07774993473464           14.916888240773572          3604.8458725648693     
   252.06690398143058          278.07752253569578           14.923646569394895          3641.8941503836008     
   254.57930540531916          278.07729388149079           14.930460713248159          3679.1817356274150     
   257.10678123775108          278.07706397214685           14.937328710309940          3716.7103015482894     
   259.64942192517759          278.07683280774637           14.944248566416242          3754.4815286337616     
   262.20731845672867          278.07660038842573           14.951218256106173          3792.4971044983313     
   264.78056236746903          278.07636671437353           14.958235723043153          3830.7587237724265     
   267.36924574167386          278.07613178582869           14.965298881413860          3869.2680879914342     
   269.97346121612389          278.07589560307912           14.972405616233299          3908.0269054820283     
   272.59330198342064          278.07565816646019           14.979553784306765          3947.0368912474764     
   275.22886179532117          278.07541947635303           14.986741215180819          3986.2997668519333     
   277.88023496609310          278.07517953318325           14.993965711839632          4025.8172603030721     
   280.54751637588964          278.07493833741921           15.001225051350286          4065.5911059329342     
   283.23080147414498          278.07469588957088           15.008516986153323          4105.6230442787164     
   285.93018628298984          278.07445219018859           15.015839244147308          4145.9148219603348     
   288.64576740068776          278.07420723986127           15.023189530223227          4186.4681915586170     
   291.37764200509190          278.07396103921536           15.030565526729385          4227.2849114913251     
   294.12590785712246          278.07371358891362           15.037964894439806          4268.3667458883665     
   296.89066330426522          278.07346488965339           15.045385273412979          4309.7154644659304     
