 #              _____________________  _______________________             #
 #              ___  __ \__  __ \_  / / /_  /___  ____/_  ___/             #
 #              __  / / /_  /_/ /  / / /_  __/_  __/  _____ \              #
 #              _  /_/ /_  _, _// /_/ / / /_ _  /___  ____/ /              #
 #              /_____/ /_/ |_| \____/  \__/ /_____/  /____/               #
 #                                                                         #
  
 #        time                      T            heat flux [W.L-2]   in    x              directions   cumulative flux
 #-----------------------------------------------------------------------------------------------

   0.0000000000000000          4.9545000000000003           6.9453957522853189          0.0000000000000000     
   1.0000000000000000          4.9541207058945984           7.0623660253031053          0.0000000000000000     
   2.0060000000000002          4.9537610521535864           7.1697983819713302          7.1697983819713302     
   3.0180360000000004          4.9534194991965208           7.2685139970029891          14.481923462956338     
   4.0361442160000003          4.9530946324712808           7.3592634453858610          21.929763003170862     
   5.0603610812960005          4.9527851523355606           7.4427324940539590          29.507270104857369     
   6.0907232477837763          4.9524898647045008           7.5195474552089632          37.208917427876010     
   7.1272675872704792          4.9522076724124728           7.5902801309427090          45.029654907843259     
   8.1700311927941023          4.9519375672399502           7.6554523771329315          52.964870735570422     
   9.2190513799508675          4.9516786225593732           7.7155403129230828          61.010355370836962     
   10.274365688230573          4.9514299865566329           7.7709782005254073          69.162268377143263     
   11.336011882359955          4.9511908759874048           7.8221620186218441          77.417107877076958     
   12.404027953654115          4.9509605704300936           7.8694527511882129          85.771682440256924     
   13.478452121376039          4.9507384069995117           7.9131794122363015          94.223085227559366     
   14.559322834104295          4.9505237754876585           7.9536418256749597          102.76867022646847     
   15.646678771108920          4.9503161139001257           7.9911131782774065          111.40603042296533     
   16.740558843735574          4.9501149043586636           8.0258423625862285          120.13297776538670     
   17.841002196797987          4.9499196693423926           8.0580561254940974          128.94752478517182     
   18.948048209978776          4.9497299682419325           8.0879610371940931          137.84786774837985     
   20.061736499238648          4.9495453942024739           8.1157452942241139          146.83237122034140     
   21.182106918234080          4.9493655712333933           8.1415803694089437          155.89955393382021     
   22.309199559743483          4.9491901515636156           8.1656225206095918          165.04807585859410     
   23.443054757101944          4.9490188132232991           8.1880141693852231          174.27672637748293     
   24.583713085644554          4.9488512578338240           8.2088851598943808          183.58441348054791     
   25.731215364158420          4.9486872085893348           8.2283539076278505          192.97015389547977     
   26.885602656343369          4.9485264084142804           8.2465284468815057          202.43306407810573     
   28.046916272281429          4.9483686182825330           8.2635073852341705          211.97235199249656     
   29.215197769915118          4.9482136156847281           8.2793807726946405          221.58730961536261     
   30.390488956534607          4.9480611932314531           8.2942308926066399          231.27730610429671     
   31.572831890273815          4.9479111573808474           8.3081329808820641          241.04178157399011     
   32.762268881615455          4.9477633272800476           8.3211558796238254          250.88024142880579     
   33.958842494905149          4.9476175337107087           8.3333626307486792          260.79225120408239     
   35.162595549874581          4.9474736181296146           8.3448110147777861          270.77743187225468     
   36.373571123173825          4.9473314317960799           8.3555540395630956          280.83545557334094     
   37.591812549912866          4.9471908349785130           8.3656403833417663          290.96604173257356     
   38.817363425212342          4.9470516962331059           8.3751147961594246          301.16895353095009     
   40.050267605763615          4.9469138917482258           8.3840184633740495          311.44399469726511     
   41.290569211398200          4.9467773047485561           8.3923893346582279          321.79100659277918     
   42.538312626666588          4.9466418249535913           8.4002624216263175          332.20986556207413     
   43.793542502426590          4.9465073480854738           8.4076700669585573          342.70048052587083     
   45.056303757441150          4.9463737754216517           8.4146421876558222          353.26279079364690     
   46.326641579985797          4.9462410133881800           8.4212064948188328          363.89676407578111     
   47.604601429465710          4.9461089731898582           8.4273886921700232          374.60239467672977     
   48.890229038042506          4.9459775704737465           8.4332126553060025          385.37970185233672     
   50.183570412270761          4.9458467250228866           8.4387005935338948          396.22872831589729     
   51.484671834744383          4.9457163604773582           8.4438731959388171          407.14953887894194     
   52.793579865752847          4.9455864040800419           8.4487497632284505          418.14221921400218     
   54.110341344947365          4.9454567864447077           8.4533483267204179          429.20687472775853     
   55.435003393017048          4.9453274413442712           8.4576857557378720          440.34362953404633     
   56.767613413375152          4.9451983055172555           8.4617778545542137          451.55262551717084     
   58.108219093855404          4.9450693184906838           8.4656394499218237          462.83402147687553     
   59.456868408418536          4.9449404224177913           8.4692844701240677          474.18799234712702     
   60.813609618869044          4.9448115619291055           8.4727260163981946          485.61472848162367     
   62.178491276582257          4.9446826839955857           8.4759764275022711          497.11443499962309     
   63.551562224241749          4.9445537378026359           8.4790473381116591          508.68733118629376     
   64.932871597587194          4.9444246746339147           8.4819497316828834          520.33364994237581     
   66.322468827172713          4.9442954477639960           8.4846939883373427          532.05363727843394     
   67.720403640135743          4.9441660123590117           8.4872899282826673          543.84755184946459     
   69.126726061976555          4.9440363253844906           8.4897468512253180          555.71566452603577     
   70.541486418348413          4.9439063455197090           8.4920735721868699          567.65825799852394     
   71.964735336858510          4.9437760330779188           8.4942784540942533          579.67562641136010     
   73.396523748879659          4.9436453499319049           8.4963694374693812          591.76807502450060     
   74.836902891372944          4.9435142594443517           8.4983540675305367          603.93591989964364     
   76.285924308721178          4.9433827264025876           8.5002395189516005          616.17948760893864     
   77.743639854573502          4.9432507169572961           8.5020326185341215          628.49911496418792     
   79.210101693700949          4.9431181985648465           8.5037398659945218          640.89514876473231     
   80.685362303863158          4.9429851399329072           8.5053674530632897          653.36794556240613     
   82.169474477686336          4.9428515109690707           8.5069212810642529          665.91787144211082     
   83.662491324552448          4.9427172827322297           8.5084069771219077          678.54530181669952     
   85.164466272499766          4.9425824273864878           8.5098299091352487          691.25062123500356     
   86.675453070134765          4.9424469181573780           8.5111951996429198          704.03422320195671     
   88.195505788555579          4.9423107292902424           8.5125077386749002          716.89651000986021     
   89.724678823286908          4.9421738360105749           8.5137721957000263          729.83789257994954     
   91.263026896226634          4.9420362144862224           8.5149930307430743          742.85879031348713     
   92.810605057603993          4.9418978417912793           8.5161745047547299          755.95963095169498     
   94.367468687949611          4.9417586958715924           8.5173206892994209          769.14085044390231     
   95.933673500077305          4.9416187555117501           8.5184354756183449          782.40289282333845     
   97.509275541077770          4.9414780003034755           8.5195225831253296          795.74621009005989     
   99.094331194324241          4.9413364106153388           8.5205855673815165          809.17126210054528     
   100.68889718149019          4.9411939675637084           8.5216278275918977          822.67851646353222     
   102.29303056457913          4.9410506529848899           8.5226526136586322          836.26844844170319     
   103.90678874796660          4.9409064494083736           8.5236630328293312          849.94154085886589     
   105.53022948045439          4.9407613400311421           8.5246620559694026          863.69828401229915     
   107.16341085733713          4.9406153086929896           8.5256525234866736          877.53917558996477     
   108.80639132248115          4.9404683398528126           8.5266371509241488          891.46472059229052     
   110.45922967041604          4.9403204185658076           8.5276185342598367          905.47543125827951     
   112.12198504843853          4.9401715304615603           8.5285991549224551          919.57182699570046     
   113.79471695872917          4.9400216617229802           8.5295813845348238          933.75443431511633     
   115.47748526048154          4.9398707990660480           8.5305674894203047          948.02378676755745     
   117.17035017204444          4.9397189297203381           8.5315596348680032          962.38042488562337     
   118.87337227307670          4.9395660414102895           8.5325598891847321          976.82489612783309     
   120.58661250671516          4.9394121223372105           8.5335702275379681          991.35775482604117     
   122.31013218175545          4.9392571611619633           8.5345925356027674          1005.9795621357463     
   124.04399297484598          4.9391011469883273           8.5356286130270860          1020.6908859891354     
   125.78825693269505          4.9389440693470013           8.5366801767236566          1035.4923010507098     
   127.54298647429123          4.9387859181802334           8.5377488639927037          1050.3843886753391     
   129.30824439313696          4.9386266838270405           8.5388362354960670          1065.3677368686158     
   131.08409385949579          4.9384663570090153           8.5399437780728888          1080.4429402493565     
   132.87059842265276          4.9383049288166845           8.5410729074256455          1095.6106000141401     
   134.66782201318867          4.9381423906963935           8.5422249706686380          1110.8713239037531     
   136.47582894526781          4.9379787344377206           8.5434012487499409          1126.2257261714205     
   138.29468391893943          4.9378139521613855           8.5446029587530390          1141.6744275527099     
   140.12445202245306          4.9376480363076283           8.5458312560874443          1157.2180552370028     
   141.96519873458777          4.9374809796250512           8.5470872365717216          1172.8572428404302     
   143.81698992699529          4.9373127751599135           8.5483719384100425          1188.5926303801632     
   145.67989186655726          4.9371434162458323           8.5496863440794382          1204.4248642499765     
   147.55397121775661          4.9369728964939084           8.5510313821174080          1220.3545971969784     
   149.43929504506315          4.9368012097832406           8.5524079288295738          1236.3824882994313     
   151.33593081533354          4.9366283502518096           8.5538168099111846          1252.5092029455720     
   153.24394640022555          4.9364543122877391           8.5552588019901012          1268.7354128133470     
   155.16341007862690          4.9362790905208831           8.5567346341017405          1285.0617958509984     
   157.09439053909867          4.9361026798147636           8.5582449890899923          1301.4890362584169     
   159.03695688233327          4.9359250752588189           8.5597905049423311          1318.0178244691922     
   160.99117862362726          4.9357462721609568           8.5613717760659220          1334.6488571332964     
   162.95712569536903          4.9355662660404018           8.5629893545049516          1351.3828371003390     
   164.93486844954126          4.9353850526208243           8.5646437510995241          1368.2204734033244     
   166.92447766023849          4.9352026278237293           8.5663354365987683          1385.1624812428663     
   168.92602452619994          4.9350189877621045           8.5680648427214479          1402.2095819717961     
   170.93958067335714          4.9348341287343160           8.5698323631713667          1419.3625030801165     
   172.96521815739729          4.9346480472182277           8.5716383546123804          1436.6219781802547     
   175.00300946634167          4.9344607398655542           8.5734831375996361          1453.9887469925627     
   177.05302752313972          4.9342722034964162           8.5753669974758111          1471.4635553310275     
   179.11534568827855          4.9340824350941039           8.5772901852320214          1489.0471550891498     
   181.19003776240822          4.9338914318000278           8.5792529183345589          1506.7403042259516     
   183.27717798898269          4.9336991909088646           8.5812553815211530          1524.5437667520762     
   185.37684105691659          4.9335057098638622           8.5832977275695228          1542.4583127159515     
   187.48910210325809          4.9333109862523230           8.5853800780419505          1560.4847181899916     
   189.61403671587763          4.9331150178012457           8.5875025239950933          1578.6237652567856     
   191.75172093617289          4.9329178023731091           8.5896651266788044          1596.8762419952766     
   193.90223126178992          4.9327193379618146           8.5918679182050006          1615.2429424668846     
   196.06564464936065          4.9325196226887540           8.5941109021998798          1633.7246667015634     
   198.24203851725682          4.9323186547990092           8.5963940544372015          1652.3222206837663     
   200.43149074836035          4.9321164326576898           8.5987173234523819          1671.0364163383006     
   202.63407969285052          4.9319129547463705           8.6010806311427448          1689.8680715160574     
   204.84988417100763          4.9317082196596500           8.6034838733539196          1708.8180099796061     
   207.07898347603367          4.9315022261018182           8.6059269204484732          1727.8870613886286     
   209.32145737688987          4.9312949728836273           8.6084096178660552          1747.0760612851934     
   211.57738612115119          4.9310864589191583           8.6109317866665993          1766.3858510788464     
   213.84685043787809          4.9308766832227766           8.6134932240707016          1785.8172780315278     
   216.12993154050537          4.9306656449061839           8.6160937039799492          1805.3711952422857     
   218.42671112974841          4.9304533431755502           8.6187329774969772          1825.0484616317995     
   220.73727139652689          4.9302397773287270           8.6214107734325101          1844.8499419266993     
   223.06169502490604          4.9300249467525399           8.6241267988019814          1864.7765066436707     
   225.40006519505548          4.9298088509201534           8.6268807393218658          1884.8290320733595     
   227.75246558622581          4.9295914893885104           8.6296722598918709          1905.0084002640567     
   230.11898037974316          4.9293728617958292           8.6325010050757367          1925.3154990051751     
   232.49969426202162          4.9291529678591797           8.6353665995727233          1945.7512218105096     
   234.89469242759375          4.9289318073721091           8.6382686486885092          1966.3164679012932     
   237.30406058215931          4.9287093802023332           8.6412067387945299          1987.0121421890356     
   239.72788494565228          4.9284856862894921           8.6441804377861811          2007.8391552581561     
   242.16625225532619          4.9282607256429403           8.6471892955393379          2028.7984233484199     
   244.61924976885814          4.9280344983396169           8.6502328443561147          2049.8908683371656     
   247.08696526747130          4.9278070045219478           8.6533105994123574          2071.1174177213438     
   249.56948705907612          4.9275782443958027           8.6564220591988903          2092.4790045993655     
   252.06690398143058          4.9273482182285049           8.6595667059579888          2113.9765676527618     
   254.57930540531916          4.9271169263468773           8.6627440061209633          2135.6110511276729     
   257.10678123775108          4.9268843691353492           8.6659534107366980          2157.3834048161598     
   259.64942192517759          4.9266505470340878           8.6691943559016380          2179.2945840373563     
   262.20731845672867          4.9264154605371866           8.6724662631849476          2201.3455496184642     
   264.78056236746903          4.9261791101908878           8.6757685400511093          2223.5372678756007     
   267.36924574167386          4.9259414965918511           8.6791005802777761          2245.8707105945036     
   269.97346121612389          4.9257026203854517           8.6824617643746951          2268.3468550111093     
   272.59330198342064          4.9254624822641295           8.6858514599942005          2290.9666837920008     
   275.22886179532117          4.9252210829657601           8.6892690223476095          2313.7311850147557     
   277.88023496609310          4.9249784232720799           8.6927137946072293          2336.6413521481759     
   280.54751637588964          4.9247345040071329           8.6961851083154205          2359.6981840324297     
   283.23080147414498          4.9244893260357578           8.6996822837871619          2382.9026848591116     
   285.93018628298984          4.9242428902621169           8.7032046305066810          2406.2558641512169     
   288.64576740068776          4.9239951976282388           8.7067514475288945          2429.7587367430647     
   291.37764200509190          4.9237462491126225           8.7103220238687022          2453.4123227601508     
   294.12590785712246          4.9234960457288484           8.7139156388953420          2477.2176475989691     
   296.89066330426522          4.9232445885242386           8.7175315627177419          2501.1757419067849     
