 #              _____________________  _______________________             #
 #              ___  __ \__  __ \_  / / /_  /___  ____/_  ___/             #
 #              __  / / /_  /_/ /  / / /_  __/_  __/  _____ \              #
 #              _  /_/ /_  _, _// /_/ / / /_ _  /___  ____/ /              #
 #              /_____/ /_/ |_| \____/  \__/ /_____/  /____/               #
 #                                                                         #
  
 #        time                      T            heat flux [W.L-2]   in    x              directions   cumulative flux
 #-----------------------------------------------------------------------------------------------

   0.0000000000000000          5.0949000000000000           4.9673028664015586          0.0000000000000000     
   1.0000000000000000          5.0951846278128965           4.8795334003530870          0.0000000000000000     
   2.0060000000000002          5.0954545192209926           4.7989195473863937          4.7989195473863937     
   3.0180360000000004          5.0957108288911162           4.7248440207190150          9.5521126322297221     
   4.0361442160000003          5.0959546173297907           4.6567419135228132          14.264903091423696     
   5.0603610812960005          5.0961868583373091           4.5940963178777103          18.942190297750340     
   6.0907232477837763          5.0964084458821759           4.5364343028773106          23.588482819064584     
   7.1272675872704792          5.0966202004398466           4.4833232235879343          28.207929448785606     
   8.1700311927941023          5.0968228748365432           4.4343673346420927          32.804347808713601     
   9.2190513799508675          5.0970171596359739           4.3892046841882522          37.381250710578918     
   10.274365688230573          5.0972036881040390           4.3475042657274958          41.941870449077207     
   11.336011882359955          5.0973830407839866           4.3089634070745646          46.489181186416666     
   12.404027953654115          5.0975557497121624           4.2733053772280893          51.025919576503497     
   13.478452121376039          5.0977223023021612           4.2402771934395558          55.554603765839033     
   14.559322834104295          5.0978831449232098           4.2096476121011541          60.077550897873401     
   15.646678771108920          5.0980386861965643           4.1812052883706823          64.596893237977767     
   16.740558843735574          5.0981893000319838           4.1547570906232441          69.114593027279014     
   17.841002196797987          5.0983353284246284           4.1301265569057390          73.632456165304333     
   18.948048209978776          5.0984770840311571           4.1071524816085283          78.152144813704240     
   20.061736499238648          5.0986148525424015           4.0856876214872750          82.675189006173824     
   21.182106918234080          5.0987488948686153           4.0655975110570619          87.202997343082160     
   22.309199559743483          5.0988794491520464           4.0467593781872822          91.736866843195543     
   23.443054757101944          5.0990067326204800           4.0290611514597918          96.277992019197285     
   24.583713085644554          5.0991309432942789           4.0124005515596366          100.82747323846714     
   25.731215364158420          5.0992522615584983           3.9966842595943270          105.38632442572856     
   26.885602656343369          5.0993708516107237           3.9818271558246390          109.95548015968572     
   28.046916272281429          5.0994868627944543           3.9677516228388470          114.53580221163710     
   29.215197769915118          5.0996004308270537           3.9543869076963483          119.12808557023207     
   30.390488956534607          5.0997116789305998           3.9416685380223355          123.73306399300840     
   31.572831890273815          5.0998207188732945           3.9295377874701747          128.35141512211035     
   32.762268881615455          5.0999276519284678           3.9179411863407507          132.98376519858616     
   33.958842494905149          5.1000325697576843           3.9068300735124546          137.63069340690785     
   35.162595549874581          5.1001355552238952           3.8961601861719042          142.29273587883100     
   36.373571123173825          5.1002366831401602           3.8858912841145905          146.97038938336303     
   37.591812549912866          5.1003360209589728           3.8759868056798075          151.66411472747146     
   38.817363425212342          5.1004336294068420           3.8664135526314127          156.37433989019232     
   40.050267605763615          5.1005295630684255           3.8571414015188115          161.10146291097755     
   41.290569211398200          5.1006238709241467           3.8481430392695044          165.84585455145219     
   42.538312626666588          5.1007165968449106           3.8393937209741349          170.60786074823974     
   43.793542502426590          5.1008077800472753           3.8308710479639241          175.38780487307903     
   45.056303757441150          5.1008974555121522           3.8225547644857629          180.18598981519028     
   46.326641579985797          5.1009856543698424           3.8144265713965808          185.00269989964792     
   47.604601429465710          5.1010724042540438           3.8064699554488892          189.83820265443450     
   48.890229038042506          5.1011577296272161           3.7986700328580367          194.69275043784961     
   50.183570412270761          5.1012416520795183           3.7910134059561100          199.56658193703154     
   51.484671834744383          5.1013241906033597           3.7834880318371011          204.45992354750391     
   52.793579865752847          5.1014053618454502           3.7760831019960137          209.37299064288953     
   54.110341344947365          5.1014851803380727           3.7687889320470207          214.30598874322169     
   55.435003393017048          5.1015636587111857           3.7615968606826411          219.25911458962761     
   56.767613413375152          5.1016408078868336           3.7544991571155388          224.23255713256819     
   58.108219093855404          5.1017166372572165           3.7474889362939896          229.22649844025469     
   59.456868408418536          5.1017911548477004           3.7405600812591655          234.24111453336840     
   60.813609618869044          5.1018643674658977           3.7337071720499577          239.27657615173302     
   62.178491276582257          5.1019362808379221           3.7269254206234677          244.33304945816849     
   63.551562224241749          5.1020068997327890           3.7202106112957565          249.41069668435614     
   64.932871597587194          5.1020762280758936           3.7135590462526218          254.50967672318370     
   66.322468827172713          5.1021442690524026           3.7069674957137662          259.63014567170006     
   67.720403640135743          5.1022110252013482           3.7004331523769824          264.77225732850957     
   69.126726061976555          5.1022764985011619           3.6939535897824909          269.93616364913629     
   70.541486418348413          5.1023406904472868           3.6875267242918177          275.12201516264508     
   71.964735336858510          5.1024036021225347           3.6811507803719423          280.32996135254263     
   73.396523748879659          5.1024652342607286           3.6748242589270972          285.56015100477526     
   74.836902891372944          5.1025255873041679           3.6685459084226171          290.81273252542235     
   76.285924308721178          5.1025846614554320           3.6623146985740238          296.08785423049494     
   77.743639854573502          5.1026424567239514           3.6561297963906307          301.38566461007002     
   79.210101693700949          5.1026989729677732           3.6499905443886731          306.70631256883939     
   80.685362303863158          5.1027542099309429           3.6438964407753898          312.04994764496882     
   82.169474477686336          5.1028081672768089           3.6378471214673507          317.41672020906157     
   83.662491324552448          5.1028608446176449           3.6318423437679215          322.80678164485403     
   85.164466272499766          5.1029122415408521           3.6258819715838078          328.22028451317681     
   86.675453070134765          5.1029623576320642           3.6199659620366336          333.65738270057784     
   88.195505788555579          5.1030111924953978           3.6140943533653402          339.11823155392005     
   89.724678823286908          5.1030587457711034           3.6082672540030112          344.60298800215611     
   91.263026896226634          5.1031050171508436           3.6024848327278849          350.11181066639222     
   92.810605057603993          5.1031500063908100           3.5967473098012439          355.64485995927606     
   94.367468687949611          5.1031937133228755           3.5910549490021046          361.20229817465781     
   95.933673500077305          5.1032361378639512           3.5854080504844066          366.78428956840537     
   97.509275541077770          5.1032772800237218           3.5798069443815845          372.39100043118395     
   99.094331194324241          5.1033171399109145           3.5742519850963563          378.02259915395172     
   100.68889718149019          5.1033557177382445           3.5687435462059973          383.67925628685236     
   102.29303056457913          5.1033930138261470           3.5632820159412710          389.36114459215241     
   103.90678874796660          5.1034290286054471           3.5578677931686906          395.06843909179128     
   105.53022948045439          5.1034637626190511           3.5525012838481635          400.80131711009574     
   107.16341085733713          5.1034972165227748           3.5471828979086562          406.55995831214477     
   108.80639132248115          5.1035293910853987           3.5419130465054618          412.34454473823547     
   110.45922967041604          5.1035602871880332           3.5366921396226356          418.15526083486390     
   112.12198504843853          5.1035899058228757           3.5315205839909196          423.99229348260548     
   113.79471695872917          5.1036182480914318           3.5263987812805113          429.85583202123161     
   115.47748526048154          5.1036453152022601           3.5213271265508568          435.74606827238523     
   117.17035017204444          5.1036711084683084           3.5163060069255669          441.66319656010103     
   118.87337227307670          5.1036956293038953           3.5113358004670361          447.60741372942624     
   120.58661250671516          5.1037188792213746           3.5064168752369045          453.57891916338718     
   122.31013218175545          5.1037408598275569           3.5015495885141501          459.57791479850982     
   124.04399297484598          5.1037615728198844           3.4967342861574990          465.60460513909027     
   125.78825693269505          5.1037810199824492           3.4919713020958061          471.65919727039147     
   127.54298647429123          5.1037992031818433           3.4872609579285845          477.74190087092057     
   129.30824439313696          5.1038161243629014           3.4826035626259668          483.85292822392842     
   131.08409385949579          5.1038317855443456           3.4779994123162266          489.99249422826051     
   132.87059842265276          5.1038461888143676           3.4734487901453313          496.16081640866480     
   134.66782201318867          5.1038593363261651           3.4689519662042869          502.35811492566114     
   136.47582894526781          5.1038712302934526           3.4645091975135336          508.58461258506111     
   138.29468391893943          5.1038818729859656           3.4601207280522654          514.84053484721028     
   140.12445202245306          5.1038912667249718           3.4557867888318086          521.12610983602565     
   141.96519873458777          5.1038994138788141           3.4515075980006347          527.44156834788214     
   143.81698992699529          5.1039063168584660           3.4472833609821469          533.78714386040679     
   145.67989186655726          5.1039119781131523           3.4431142706325226          540.16307254121671     
   147.55397121775661          5.1039164001260202           3.4390005074174721          546.56959325663934     
   149.43929504506315          5.1039195854098578           3.4349422396070981          553.00694758044938     
   151.33593081533354          5.1039215365028916           3.4309396234794876          559.47537980264542     
   153.24394640022555          5.1039222559646644           3.4269928035325168          565.97513693828432     
   155.16341007862690          5.1039217463719737           3.4231019127038427          572.50646873639687     
   157.09439053909867          5.1039200103149049           3.4192670725917407          579.06962768899041     
   159.03695688233327          5.1039170503929441           3.4154883936793361          585.66486904015323     
   160.99117862362726          5.1039128692111753           3.4117659755574339          592.29245079526402     
   162.95712569536903          5.1039074693765745           3.4080999071459197          598.95263373031059     
   164.93486844954126          5.1039008534943848           3.4044902669117905          605.64568140131917     
   166.92447766023849          5.1038930241645915           3.4009371230826622          612.37186015389125     
   168.92602452619994          5.1038839839784753           3.3974405338591414          619.13143913285353     
   170.93958067335714          5.1038737355152630           3.3940005476170461          625.92469029200777     
   172.96521815739729          5.1038622813388663           3.3906172031073512          632.75188840398152     
   175.00300946634167          5.1038496239947095           3.3872905296490914          639.61331107017293     
   177.05302752313972          5.1038357660066458           3.3840205473146199          646.50923873077988     
   179.11534568827855          5.1038207098739479           3.3808072671120679          653.43995467491368     
   181.19003776240822          5.1038044580684039           3.3776506911567639          660.40574505078007     
   183.27717798898269          5.1037870130314786           3.3745508128398525          667.40689887592680     
   185.37684105691659          5.1037683771715594           3.3715076169901215          674.44370804754908     
   187.48910210325809          5.1037485528612878           3.3685210800273615          681.51646735283930     
   189.61403671587763          5.1037275424349531           3.3655911701143149          688.62547447938266     
   191.75172093617289          5.1037053481859811           3.3627178472967607          695.77103002557703     
   193.90223126178992          5.1036819723644733           3.3599010636458635          702.95343751108612     
   196.06564464936065          5.1036574171748272           3.3571407633917647          710.17300338731002     
   198.24203851725682          5.1036316847734309           3.3544368830498317          717.43003704786111     
   200.43149074836035          5.1036047772664093           3.3517893515483186          724.72485083905053     
   202.63407969285052          5.1035766967074432           3.3491980903478438          732.05776007037036     
   204.84988417100763          5.1035474450956499           3.3466630135597288          739.42908302497119     
   207.07898347603367          5.1035170243735122           3.3441840280603889          746.83914097012882     
   209.32145737688987          5.1034854364248821           3.3417610336020545          754.28825816769427     
   211.57738612115119          5.1034526830730265           3.3393939229229210          761.77676188452676     
   213.84685043787809          5.1034187660787333           3.3370825818525081          769.30498240290171     
   216.12993154050537          5.1033836871384608           3.3348268894198370          776.87325303090142     
   218.42671112974841          5.1033474478825473           3.3326267179536999          784.48191011277220     
   220.73727139652689          5.1033100498734569           3.3304819331871682          792.13129303925916     
   223.06169502490604          5.1032714946040860           3.3283923943587141          799.82174425791209     
   225.40006519505548          5.1032317834961027           3.3263579543127637          807.55360928336370     
   227.75246558622581          5.1031909178983268           3.3243784596022330          815.32723670758492     
   230.11898037974316          5.1031488990851663           3.3224537505865368          823.14297821011007     
   232.49969426202162          5.1031057282550805           3.3205836615324329          831.00118856823860     
   234.89469242759375          5.1030614065290862           3.3187680207179655          838.90222566722366     
   237.30406058215931          5.1030159349493038           3.3170066505304807          846.84645051043469     
   239.72788494565228          5.1029693144775363           3.3152993675694433          854.83422722950786     
   242.16625225532619          5.1029215459938877           3.3136459827509541          862.86592309449020     
   244.61924976885814          5.1028726302954102           3.3120463014088632          870.94190852397196     
   247.08696526747130          5.1028225680947905           3.3105001234015536          879.06255709522316     
   249.56948705907612          5.1027713600190721           3.3090072432158801          887.22824555433010     
   252.06690398143058          5.1027190066083934           3.3075674500756445          895.43935382634572     
   254.57930540531916          5.1026655083147761           3.3061805280494929          903.69626502545532     
   257.10678123775108          5.1026108655009308           3.3048462561602348          911.99936546516517     
   259.64942192517759          5.1025550784391021           3.3035644084955678          920.34904466851992     
   262.20731845672867          5.1024981473099338           3.3023347543213517          928.74569537835998     
   264.78056236746903          5.1024400722013699           3.3011570581937444          937.18971356761904     
   267.36924574167386          5.1023808531075847           3.3000310800727579          945.68149844967024     
   269.97346121612389          5.1023204899279291           3.2989565754434347          954.22145248874426     
   272.59330198342064          5.1022589824659237           3.2979332954282738          962.80998141040254     
   275.22886179532117          5.1021963304282645           3.2969609869067140          971.44749421208769     
   277.88023496609310          5.1021325334238581           3.2960393926377218          980.13440317376467     
   280.54751637588964          5.1020675909628928           3.2951682513775875          988.87112386864669     
   283.23080147414498          5.1020015024559200           3.2943472980044901          997.65807517402754     
   285.93018628298984          5.1019342672129859           3.2935762636379802          1006.4956792822148     
   288.64576740068776          5.1018658844427627           3.2928548757672238          1015.3843617115916     
   291.37764200509190          5.1017963532517330           3.2921828583690735          1024.3245513177876     
   294.12590785712246          5.1017256726433740           3.2915599320416753          1033.3166803050065     
   296.89066330426522          5.1016538415173933           3.2909858141228234          1042.3611842374771     
