 #              _____________________  _______________________             #
 #              ___  __ \__  __ \_  / / /_  /___  ____/_  ___/             #
 #              __  / / /_  /_/ /  / / /_  __/_  __/  _____ \              #
 #              _  /_/ /_  _, _// /_/ / / /_ _  /___  ____/ /              #
 #              /_____/ /_/ |_| \____/  \__/ /_____/  /____/               #
 #                                                                         #
  
 #        time                      T            heat flux [W.L-2]   in    x              directions   cumulative flux
 #-----------------------------------------------------------------------------------------------

   0.0000000000000000          4.6891999999999996          -6.9453891497962976          0.0000000000000000     
   1.0000000000000000          4.4457440366001935          -82.054539193346031          0.0000000000000000     
   2.0060000000000002          4.2205163224882583          -149.35595079800328          149.35595079800328     
   3.0180360000000004          4.0118553218523250          -209.61971817345983          360.23338728050385     
   4.0361442160000003          3.8182509769358206          -263.54532207824201          626.95074085527949     
   5.0603610812960005          3.6383320287321315          -311.76695320667091          944.36323739227873     
   6.0907232477837763          3.4708541528393706          -354.85871507209418          1307.8155181663856     
   7.1272675872704792          3.3146889127668797          -393.33961954153341          1713.0977807226775     
   8.1700311927941023          3.1688135166539801          -427.67832222096268          2156.4053247419865     
   9.2190513799508675          3.0323013519684539          -458.29756855776537          2634.3013497339916     
   10.274365688230573          2.9043132650695913          -485.57833788137640          3143.6828286175837     
   11.336011882359955          2.7840895476199177          -509.86368378865950          3681.7492693919553     
   12.404027953654115          2.6709425890056728          -531.46227680511129          4245.9741728854387     
   13.478452121376039          2.5642501526420900          -550.65166018205184          4834.0789956446806     
   14.559322834104295          2.4634492338859646          -567.68123277980590          5444.0094317054800     
   15.646678771108920          2.3680304579423588          -582.77497477655857          6073.9138340524105     
   16.740558843735574          2.2775329773959863          -596.13393281753997          6722.1236051514788     
   17.841002196797987          2.1915398306390657          -607.93848145608456          7387.1353953991984     
   18.948048209978776          2.1096737243680992          -618.35037753574738          8067.5949582220455     
   20.061736499238648          2.0315932053776948          -627.51462366426438          8762.2825205622121     
   21.182106918234080          1.9569891890117472          -635.56115623881817          9470.0995373738479     
   22.309199559743483          1.8855818137826776          -642.60637267197512          10190.056708373482     
   23.443054757101944          1.8171175937952502          -648.75451159193619          10921.263144534782     
   24.583713085644554          1.7513668426818327          -654.09889888729981          11662.916580624593     
   25.731215364158420          1.6881213447493493          -658.72307156203897          12414.294538405004     
   26.885602656343369          1.6271922509400567          -662.70179047945442          13174.746352955397     
   28.046916272281429          1.5684081790096185          -666.10195221708477          13943.685981894387     
   29.215197769915118          1.5116134990218111          -668.98340943614085          14720.585524109243     
   30.390488956534607          1.4566667868477308          -671.39970839410671          15504.969380942732     
   31.572831890273815          1.4034394298390487          -673.39875150038472          16296.408998661702     
   32.762268881615455          1.3518143702218479          -675.02339213337575          17094.518136459268     
   33.958842494905149          1.3016849730332116          -676.31196830300894          17898.948609245945     
   35.162595549874581          1.2529540066012399          -677.29878115450867          18709.386459088699     
   36.373571123173825          1.2055327246552867          -678.01452376551345          19525.548513385078     
   37.591812549912866          1.1593400401519962          -678.48666518763389          20347.179291736567     
   38.817363425212342          1.1143017818194156          -678.73979422290472          21174.048227035244     
   40.050267605763615          1.0703500252613494          -678.79592700306785          22005.947169523573     
   41.290569211398200          1.0274224912323617          -678.67478205278564          22842.688145551179     
   42.538312626666588         0.98546200439553711          -678.39402616438144          23684.101345455769     
   43.793542502426590         0.94441600651515023          -677.96949408914827          24530.033317458343     
   45.056303757441150         0.90423611861945341          -677.41538475643063          25380.345346704071     
   46.326641579985797         0.86487774719930210          -676.74443646434258          26234.912000617904     
   47.604601429465710         0.82629972999052348          -675.96808324309256          27093.619823594614     
   48.890229038042506         0.78846401732570381          -675.09659437146524          27956.366165721975     
   50.183570412270761         0.75133538543814782          -674.13919882720745          28823.058131758073     
   51.484671834744383         0.71488117846056953          -673.10419627117597          29693.611637962240     
   52.793579865752847         0.67907107618682228          -671.99905600146860          30567.950565626685     
   54.110341344947365         0.64387688495963202          -670.83050516593755          31446.006001283848     
   55.435003393017048         0.60927234931360497          -669.60460738801817          32327.715554583559     
   56.767613413375152         0.57523298224327268          -668.32683284046118          33213.022745753929     
   58.108219093855404         0.54173591218295791          -667.00212069312511          34101.876455389691     
   59.456868408418536         0.50875974498092580          -665.63493476335907          34994.230430059550     
   60.813609618869044         0.47628443932660536          -664.22931310973081          35890.042837897730     
   62.178491276582257         0.44429119424843655          -662.78891223092512          36789.275868951096     
   63.551562224241749         0.41276234744275231          -661.31704646082335          37691.895375598549     
   64.932871597587194         0.38168128332257878          -659.81672308718066          38597.870548849445     
   66.322468827172713         0.35103234979068770          -658.29067366435152          39507.173626767908     
   67.720403640135743         0.32080078284492630          -656.74138193945123          40419.779631665137     
   69.126726061976555         0.29097263821693459          -655.17110876564675          41335.666133056227     
   70.541486418348413         0.26153472932886213          -653.58191433538684          42254.813033695726     
   71.964735336858510         0.23247457092757678          -651.97567802984986          43177.202376291018     
   73.396523748879659         0.20378032782296496          -650.35411614823283          44102.818168747574     
   74.836902891372944         0.17544076821703899          -648.71879775137654          45031.646226028286     
   76.285924308721178         0.14744522116439801          -647.07115882822563          45963.674026913417     
   77.743639854573502         0.11978353775276585          -645.41251497044505          46898.890584130182     
   79.210101693700949          9.2446055635436619E-002     -643.74407271986638          47837.286326484224     
   80.685362303863158          6.5423566586014781E-002     -642.06693973505139          48778.852991771018     
   82.169474477686336          3.8707286780303857E-002     -640.38213390689498          49723.583529375479     
   83.662491324552448          1.2288829541014096E-002     -638.69059153862850          50671.472011584287     
   85.164466272499766         -1.3839819691506938E-002     -700.46389774716727          51717.276411542312     
   86.675453070134765         -3.9686326374714365E-002     -712.47637905908493          52787.398083893269     
   88.195505788555579         -6.5258028055695083E-002     -727.15025001821277          53886.112511567779     
   89.724678823286908         -9.0561953909972931E-002     -744.92310074676880          55018.434895872364     
   91.263026896226634        -0.11560484278034683          -766.27902330103677          56190.208115384572     
   92.810605057603993        -0.14039315985316067          -791.74469094805033          57408.187034964758     
   94.367468687949611        -0.16493311209542141          -821.88135715313729          58680.112674538141     
   95.933673500077305        -0.18923066256369020          -857.27161680086476          60014.767676062998     
   97.509275541077770        -0.21329154368451886          -898.49979576036003          61422.002379878628     
   99.094331194324241        -0.23712126959623298          -685.13089114449235          62501.496010318355     
   100.68889718149019        -0.25734748970038812          -675.23505499964824          63571.781151515737     
   102.29303056457913        -0.27665201943146656          -665.16346961837644          64632.428196074492     
   103.90678874796660        -0.29514584298767776          -655.53483146594863          65683.993503006597     
   105.53022948045439        -0.31295645411000794          -646.80802768717331          66727.785250767483     
   107.16341085733713        -0.33019800536118316          -639.27455508947139          67765.609602742741     
   108.80639132248115        -0.34697534699827226          -633.08711058692700          68799.555681697806     
   110.45922967041604        -0.36338789209602701          -628.30847709379714          69831.854235647304     
   112.12198504843853        -0.37953341036510430          -624.90962315167872          70864.728824785940     
   113.79471695872917        -0.39551200953183696          -622.88129443829382          71900.428046982823     
   115.47748526048154        -0.41143068111135972          -622.21503915703840          72941.226998043538     
   117.17035017204444        -0.42740895895065323          -622.95131839370060          73989.509730171310     
   118.87337227307670        -0.42982580273786758          -617.12284380066308          75034.215338565366     
   120.58661250671516        -0.43219627386516485          -611.44470983597159          76075.519192975291     
   122.31013218175545        -0.43452718497948956          -605.90875289128633          77113.586446342350     
   124.04399297484598        -0.43682528458678599          -600.50796666017993          78148.573741899614     
   125.78825693269505        -0.43909717309722285          -595.23633038866899          79180.630677783614     
   127.54298647429123        -0.44134924011443449          -590.08865846290610          80209.901056675968     
   129.30824439313696        -0.44358761894747811          -585.06046951348878          81236.523946151414     
   131.08409385949579        -0.44581815495693483          -580.14787312498493          82260.634573286807     
   132.87059842265276        -0.44804638490965459          -575.34747225381705          83282.365074859641     
   134.66782201318867        -0.45027752500745732          -570.65627953941555          84301.845122250990     
   136.47582894526781        -0.45251646567620685          -566.07164581534892          85319.202438043823     
   138.29468391893943        -0.45476777155828213          -561.59119926951178          86334.563219317730     
   140.12445202245306        -0.45703568545058398          -557.21279385250114          87348.052480809798     
   141.96519873458777        -0.45932413517898202          -552.93446568230183          88359.794329448632     
   143.81698992699529        -0.46163674260569149          -548.75439633597773          89369.912180273561     
   145.67989186655726        -0.46397683413515212          -544.67088205218852          90378.528922418642     
   147.55397121775661        -0.46634745222242940          -540.68230799040441          91385.767042660809     
   149.43929504506315        -0.46875136750116581          -536.78712680310457          92391.748712992136     
   151.33593081533354        -0.47119109124013103          -532.98384087628108          93396.595847765551     
   153.24394640022555        -0.47366888791211970          -529.27098768168969          94400.430135168979     
   155.16341007862690        -0.47618678771945561          -525.64712776219505          95403.373047092959     
   157.09439053909867        -0.47874659896917465          -522.11083494029481          96405.545830860661     
   159.03695688233327        -0.48134992023019102          -518.66068840017272          97407.069485776228     
   160.99117862362726        -0.48399815223597481          -515.29526634648403          98408.064727009012     
   162.95712569536903        -0.48669250952091136          -512.01314098909813          99408.651938958137     
   164.93486844954126        -0.48943403179755085          -508.81287464322810          100408.95111992750     
   166.92447766023849        -0.49222359509630575          -505.69301676918445          101409.08181967825     
   168.92602452619994        -0.49506192269943361          -502.65210180609864          102409.16307120799     
   170.93958067335714        -0.49794959590796095          -499.68864767999600          103409.31331792839     
   172.96521815739729        -0.50088706468396360          -496.80115488865528          104409.65033726924     
   175.00300946634167        -0.50387465821176058          -493.98214045845532          105410.27907742826     
   177.05302752313972        -0.50691259542040279          -491.24180076467599          106411.32734961671     
   179.11534568827855        -0.51000099550669875          -488.57281826768974          107412.91044912618     
   181.19003776240822        -0.51313988849321535          -485.97362315172717          108415.14267993033     
   183.27717798898269        -0.51632922584952434          -483.44262999908142          109418.13727268582     
   185.37684105691659        -0.51956889119776761          -480.97823914644840          110422.00630371532     
   187.48910210325809        -0.52285871111568427          -478.57883831326615          111426.86061561639     
   189.61403671587763        -0.52619832881630901          -476.24303143709955          112432.81021951257     
   191.75172093617289        -0.52958758402291983          -473.96901924338346          113439.96339381217     
   193.90223126178992        -0.53302617036272237          -471.75686264658862          114448.43059490778     
   196.06564464936065        -0.53651377575911330          -469.60485986209864          115458.32069500117     
   198.24203851725682        -0.54005009121768677          -467.51104053678898          116469.74033893557     
   200.43149074836035        -0.54363482033955390          -465.47347869909424          117482.79396364458     
   202.63407969285052        -0.54726769019386279          -463.49029070593650          118497.58381472553     
   204.84988417100763        -0.55094846214447757          -461.55963401191275          119514.20996182309     
   207.07898347603367        -0.55467694259463962          -459.67970663834041          120532.77031431027     
   209.32145737688987        -0.55845299361388190          -457.84874723365891          121553.36063857586     
   211.57738612115119        -0.56227654341367239          -456.06503562835627          122576.07457806550     
   213.84685043787809        -0.56614759664220693          -454.32689379794834          123601.00367707526     
   216.12993154050537        -0.57006624447428089          -452.63268715666430          124628.23740916152     
   218.42671112974841        -0.57403267447915962          -450.98082611286617          125657.86321090705     
   220.73727139652689        -0.57804718025755786          -449.36976782494207          126689.96652167026     
   223.06169502490604        -0.58211017084807137          -447.79801810403933          127724.63082984361     
   225.40006519505548        -0.58622217991340086          -446.26413341710480          128761.93772605648     
   227.75246558622581        -0.59038387472724230          -444.76672295086132          129801.96696367989     
   230.11898037974316        -0.59459606499357986          -443.30445070436690          130844.79652692440     
   232.49969426202162        -0.59885971154106266          -441.87603758464633          131890.50270676930     
   234.89469242759375        -0.60317593494601862          -440.48026348679542          132939.16018492199     
   237.30406058215931        -0.60754602414832948          -439.11596934658456          133990.84212598047     
   239.72788494565228        -0.61197144513471446          -437.78205916011291          135045.62027796099     
   242.16625225532619        -0.61645384977393269          -436.47750197145797          136103.56508135595     
   244.61924976885814        -0.62099508489798882          -435.20133383525717          137164.74578690634     
   247.08696526747130        -0.62559720173261946          -433.95265976704360          138229.23058230546     
   249.56948705907612        -0.63026246578926204          -432.73065569970498          139297.08672810066     
   252.06690398143058        -0.63499336733943157          -431.53457046960648          140368.38070312230     
   254.57930540531916        -0.63979263260108477          -430.36372786096160          141443.17835984982     
   257.10678123775108        -0.64466323577536866          -429.20555265711414          142521.51500148643     
   259.64942192517759        -0.65231411059841649          -432.66333569679858          143615.06112603948     
   262.20731845672867        -0.65982104428867072          -435.89956577504347          144723.39709761066     
   264.78056236746903        -0.66721803675790625          -438.95882319508081          145846.20834895509     
   267.36924574167386        -0.67453312137774624          -441.88195091274389          146983.27838840737     
   269.97346121612389        -0.68179151457276721          -444.71112831516876          148134.49469260071     
   272.59330198342064        -0.68901592569069103          -447.48053937474998          149299.83043775568     
   275.22886179532117        -0.69622712242311535          -450.22279656750038          150479.34247456957     
   277.88023496609310        -0.70344421323185524          -452.96936264998635          151673.17032279205     
   280.54751637588964        -0.71068488091364679          -455.75095228276331          152881.53617022833     
   283.23080147414498        -0.71796557458811439          -458.59792207018057          154104.74588233745     
   285.93018628298984        -0.72530166589484524          -461.54065765159419          155343.19105125294     
   288.64576740068776        -0.73270757383977414          -464.60996663903404          156597.35213723627     
   291.37764200509190        -0.74019686160389808          -467.83748662433771          157867.80278206459     
   294.12590785712246        -0.74778230770145881          -471.25611825006314          159155.21540368200     
   296.89066330426522        -0.75547595311854621          -474.90049451267862          160460.36821586362     
