 #              _____________________  _______________________             #
 #              ___  __ \__  __ \_  / / /_  /___  ____/_  ___/             #
 #              __  / / /_  /_/ /  / / /_  __/_  __/  _____ \              #
 #              _  /_/ /_  _, _// /_/ / / /_ _  /___  ____/ /              #
 #              /_____/ /_/ |_| \____/  \__/ /_____/  /____/               #
 #                                                                         #
  
 #        time                      T            heat flux [W.L-2]   in    x              directions   cumulative flux
 #-----------------------------------------------------------------------------------------------

   0.0000000000000000          277.97960000000000          -14.244254984152104          0.0000000000000000     
   1.0000000000000000          277.97975131459890          -14.338053984573309          0.0000000000000000     
   2.0060000000000002          277.97989479784326          -14.423628077597691          14.423628077597691     
   3.0180360000000004          277.98003106393469          -14.501708764238188          29.012347094421308     
   4.0361442160000003          277.98016067701457          -14.572963782175758          43.760711068679335     
   5.0603610812960005          277.98028415515819          -14.638002343763846          58.663781520692559     
   6.0907232477837763          277.98040197406141          -14.697379972793298          73.717085964491119     
   7.1272675872704792          277.98051457044056          -14.751602966358318          88.916579556075575     
   8.1700311927941023          277.98062234516891          -14.801132511290389          104.25860967864624     
   9.2190513799508675          277.98072566616651          -14.846388478932473          119.73988325794224     
   10.274365688230573          277.98082487106444          -14.887752922837716          135.35743661540113     
   11.336011882359955          277.98092026965850          -14.925573302358929          151.10860768065808     
   12.404027953654115          277.98101214616906          -14.960165451455566          166.99101039574177     
   13.478452121376039          277.98110076132093          -14.991816313521440          183.00251115647262     
   14.559322834104295          277.98118635425715          -15.020786460501688          199.14120714782590     
   15.646678771108920          277.98126914429946          -15.047312412772277          215.40540644006381     
   16.740558843735574          277.98134933256614          -15.071608775588421          231.79360972241091     
   17.841002196797987          277.98142710345934          -15.093870209026294          248.30449356287787     
   18.948048209978776          277.98150262602945          -15.114273241983337          264.93689508838753     
   20.061736499238648          277.98157605522817          -15.132977946471316          281.68979799158137     
   21.182106918234080          277.98164753305679          -15.150129482169154          298.56231977664390     
   22.309199559743483          277.98171718961737          -15.165859522956383          315.55370016480441     
   23.443054757101944          277.98178514407567          -15.180287576535173          332.66329058831383     
   24.583713085644554          277.98185150553905          -15.193522205280509          349.89054470695231     
   25.731215364158420          277.98191637385906          -15.205662159315178          367.23500988998040     
   26.885602656343369          277.98197984036074          -15.216797427421593          384.69631960963062     
   28.046916272281429          277.98204198850488          -15.227010215595771          402.27418670048479     
   29.215197769915118          277.98210289448872          -15.236375858606632          419.96839744263463     
   30.390488956534607          277.98216262778692          -15.244963671576141          437.77880643223477     
   31.572831890273815          277.98222125163892          -15.252837747688549          455.70533220803020     
   32.762268881615455          277.98227882348368          -15.260057705351267          473.74795360440481     
   33.958842494905149          277.98233539534709          -15.266679391914666          491.90670680810126     
   35.162595549874581          277.98239101418324          -15.272755546994219          510.18168309785835     
   36.373571123173825          277.98244572217243          -15.278336427934855          528.57302724783563     
   37.591812549912866          277.98249955697963          -15.283470403432865          547.08093658163477     
   38.817363425212342          277.98255255197319          -15.288204515735826          565.70566066316303     
   40.050267605763615          277.98260473640761          -15.292585015605344          584.44750161462980     
   41.290569211398200          277.98265613557123          -15.296657870646365          603.30681505181224     
   42.538312626666588          277.98270677090062          -15.300469250446413          622.28401163010346     
   43.793542502426590          277.98275666006447          -15.304065989642433          641.37955919551268     
   45.056303757441150          277.98280581701522          -15.307496029100827          660.59398553431765     
   46.326641579985797          277.98285425201476          -15.310808838323396          679.92788171828693     
   47.604601429465710          277.98290197162993          -15.314055817202094          699.38190603943860     
   48.890229038042506          277.98294897870369          -15.317290680598390          718.95678853205618     
   50.183570412270761          277.98299527230017          -15.320569824121634          738.65333607707544     
   51.484671834744383          277.98304084762634          -15.323952672027529          758.47243808452424     
   52.793579865752847          277.98308569593132          -15.327502007813804          778.41507274985815     
   54.110341344947365          277.98312980438328          -15.331284286805493          798.48231387853173     
   55.435003393017048          277.98317315592612          -15.335369930630819          818.67533827238424     
   56.767613413375152          277.98321572911726          -15.339833604464655          838.99543367192257     
   58.108219093855404          277.98325749794651          -15.344754475309484          859.44400724565480     
   59.456868408418536          277.98329843163856          -15.350216452291559          880.02259461819824     
   60.813609618869044          277.98333849443850          -15.356308407609387          900.73286942634070     
   62.178491276582257          277.98337764538371          -15.363124378927003          921.57665339250786     
   63.551562224241749          277.98341583806058          -15.370763751266361          942.55592690165452     
   64.932871597587194          277.98345302035068          -15.379331420256904          963.67284006923614     
   66.322468827172713          277.98348913416339          -15.388937933853816          984.92972428309974     
   67.720403640135743          277.98352411516021          -15.399699614450732          1006.3291042037897     
   69.126726061976555          277.98355789246949          -15.411738659952949          1027.8737102048262     
   70.541486418348413          277.98359038839294          -15.425183223216866          1049.5664912326388     
   71.964735336858510          277.98362151810682          -15.440167471286228          1071.4106280667568     
   73.396523748879659          277.98365118935726          -15.456831622342140          1093.4095469568479     
   74.836902891372944          277.98367930215198          -15.475321961962596          1115.5669336142823     
   76.285924308721178          277.98370574844881          -15.495790837356132          1137.8867475328486     
   77.743639854573502          277.98373041184340          -15.518396630541494          1160.3732366134079     
   79.210101693700949          277.98375316725657          -15.543303710653765          1183.0309520663320     
   80.685362303863158          277.98377388062244          -15.570682364442213          1205.8647635629611     
   82.169474477686336          277.98379240857912          -15.600708706549305          1228.8798746083478     
   83.662491324552448          277.98380859816314          -15.633564569607454          1252.0818381063530     
   85.164466272499766          277.98382228650746          -15.669437373518130          1275.4765720859291     
   86.675453070134765          277.98383330054656          -15.708519975683924          1299.0703755587363     
   88.195505788555579          277.98384145672799          -15.751010501735726          1322.8699444762692     
   89.724678823286908          277.98384656073171          -15.797112156991554          1346.8823877537027     
   91.263026896226634          277.98384840719928          -15.847033020083444          1371.1152433285113     
   92.810605057603993          277.98384677947280          -15.900985817450842          1395.5764942186286     
   94.367468687949611          277.98384144934568          -15.959187680876786          1420.2745845468760     
   95.933673500077305          277.98383217682584          -16.021859887360495          1445.2184354960009     
   97.509275541077770          277.98381870991159          -16.089227581935493          1470.4174611582459     
   99.094331194324241          277.98380078438367          -16.161519484484483          1495.8815842436684     
   100.68889718149019          277.98377812361105          -16.238967579910618          1521.6212516090918     
   102.29303056457913          277.98375043837478          -16.321806793844647          1547.6474495716504     
   103.90678874796660          277.98371742670798          -16.410274652688322          1573.9717189676860     
   105.53022948045439          277.98367877375557          -16.504610930278758          1600.6061699200498     
   107.16341085733713          277.98363415165153          -16.605057280359809          1627.5634962742790     
   108.80639132248115          277.98358321941816          -16.711856857290744          1654.8569896667361     
   110.45922967041604          277.98352562288511          -16.825253924521959          1682.5005531858135     
   112.12198504843853          277.98346099463026          -16.945493452181800          1710.5087145882592     
   113.79471695872917          277.98338895394340          -17.072820705418778          1738.8966390342082     
   115.47748526048154          277.98330910681233          -17.207480823489405          1767.6801413033729     
   117.17035017204444          277.98322104593251          -17.349718391248238          1796.8756974564956     
   118.87337227307670          277.98312435074189          -17.499777004994900          1826.5004559084266     
   120.58661250671516          277.98301858747914          -17.657898832472792          1856.5722478779196     
   122.31013218175545          277.98290330926699          -17.824324169380688          1887.1095971823170     
   124.04399297484598          277.98277805622092          -17.999290993410643          1918.1317293462357     
   125.78825693269505          277.98264235558361          -18.183034517465511          1949.6585799954810     
   127.54298647429123          277.98249572188388          -18.375786742673828          1981.7108025078478     
   129.30824439313696          277.98233765712217          -18.577776014002612          2014.3097748967750     
   131.08409385949579          277.98216765098039          -18.789226578393826          2047.4776059032718     
   132.87059842265276          277.98198518105835          -19.010358148059986          2081.2371402757940     
   134.66782201318867          277.98178971313416          -19.241385469491028          2115.6119632185018     
   136.47582894526781          277.98158070144950          -19.482517900341570          2150.6264039920338     
   138.29468391893943          277.98135758901964          -19.733958995154996          2186.3055386526394     
   140.12445202245306          277.98111980796665          -19.995906100811741          2222.6751919171711     
   141.96519873458777          277.98086677987595          -20.268549963956247          2259.7619381456907     
   143.81698992699529          277.98059791617584          -20.552074351414333          2297.5931014356047     
   145.67989186655726          277.98031261853771          -20.846655683881220          2336.1967548221683     
   147.55397121775661          277.98001027929774          -21.152462685065341          2375.6017185846886     
   149.43929504506315          277.97969028189885          -21.469656047369437          2415.8375576604158     
   151.33593081533354          277.97935200135043          -21.798388113823837          2456.9345781682837     
   153.24394640022555          277.97899480470727          -22.138802578949345          2498.9238230504729     
   155.16341007862690          277.97861805156441          -22.491034208106136          2541.8370668398784     
   157.09439053909867          277.97822109456803          -22.855208576224435          2585.7068095642285     
   159.03695688233327          277.97780327994002          -23.231441827649583          2630.5662698020060     
   160.99117862362726          277.97736394801649          -23.619840456033394          2676.4493769044670     
   162.95712569536903          277.97690243379731          -24.020501106020198          2723.3907624026283     
   164.93486844954126          277.97641806750630          -24.433510396918145          2771.4257506198214     
   166.92447766023849          277.97591017516061          -24.858944768021004          2820.5903485111421     
   168.92602452619994          277.97537807914728          -25.296870346848490          2870.9212347550460     
   170.93958067335714          277.97482109880571          -25.747342839454941          2922.4557481221914     
   172.96521815739729          277.97423855101596          -26.210407443596480          2975.2318751497401     
   175.00300946634167          277.97362975078886          -26.686098784321402          3029.2882371500596     
   177.05302752313972          277.97299401185859          -27.174440871982402          3084.6640765844081     
   179.11534568827855          277.97233064727556          -27.675447082782544          3141.3992428340712     
   181.19003776240822          277.97163896999757          -28.189120160971150          3199.5341774013236     
   183.27717798898269          277.97091829347920          -28.715452243218007          3259.1098985753770     
   185.37684105691659          277.97016793225629          -29.254424903678405          3320.1679855971456     
   187.48910210325809          277.96938720252552          -29.806009220678920          3382.7505623603024     
   189.61403671587763          277.96857542271664          -30.370165863259778          3446.9002806841963     
   191.75172093617289          277.96773191405680          -30.946845198432015          3512.6603031977238     
   193.90223126178992          277.96685600112528          -31.535987417448982          3580.0742858714343     
   196.06564464936065          277.96594701239741          -32.137522681643844          3649.1863602380613     
   198.24203851725682          277.96500428077593          -32.751371286431926          3720.0411153404280     
   200.43149074836035          277.96402714410902          -33.377443842419453          3792.6835794451181     
   202.63407969285052          277.96301494569434          -34.015641474526966          3867.1592015639394     
   204.84988417100763          277.96196703476676          -34.665856035820667          3943.5138328197254     
   207.07898347603367          277.96088276696935          -35.327970336987164          4021.7937076966227     
   209.32145737688987          277.95976150480732          -36.001858389219478          4102.0454252116779     
   211.57738612115119          277.95860261808235          -36.687385659982169          4184.3159300448342     
   213.84685043787809          277.95740548430945          -37.384409341266377          4268.6524936650294     
   216.12993154050537          277.95616948911129          -38.092778626823950          4355.1026954835834     
   218.42671112974841          277.95489402659371          -38.812335000422877          4443.7144040718877     
   220.73727139652689          277.95357849969957          -39.542912531181052          4534.5357584727271     
   223.06169502490604          277.95222232054124          -40.284338174428967          4627.6151496320308     
   225.40006519505548          277.95082491071122          -41.036432075319077          4723.0012019722790     
   227.75246558622581          277.94938570157257          -41.799007870594401          4820.7427551187184     
   230.11898037974316          277.94790413452824          -42.571872986618729          4920.8888457852936     
   232.49969426202162          277.94637966127169          -43.354828930688278          5023.4886898201812     
   234.89469242759375          277.94481174401858          -44.147671573440576          5128.5916644053414     
   237.30406058215931          277.94319985572179          -44.950191422030244          5236.2472904032202     
   239.72788494565228          277.94154348026996          -45.762173883490277          5346.5052148417935     
   242.16625225532619          277.93984211267230          -46.583399518074188          5459.4151935280279     
   244.61924976885814          277.93809525922899          -47.413644283833179          5575.0270737822339     
   247.08696526747130          277.93630243769030          -48.252679772985090          5693.3907772866196     
   249.56948705907612          277.93446317740370          -49.100273441588030          5814.5562830445697     
   252.06690398143058          277.93257701945066          -49.956188833767058          5938.5736104499219     
   254.57930540531916          277.93064351677492          -50.820185802386433          6065.4928024699993     
   257.10678123775108          277.92866223430036          -51.692020726790147          6195.3639089476646     
   259.64942192517759          277.92663274904191          -52.571446730098423          6328.2369700339705     
   262.20731845672867          277.92455465020811          -53.458213896763041          6464.1619997650296     
   264.78056236746903          277.92242753929639          -54.352069492283249          6603.1889698019631     
   267.36924574167386          277.92025103018022          -55.252758185123454          6745.3677933534427     
   269.97346121612389          277.91802474919086          -56.160022273916510          6890.7483093089022     
   272.59330198342064          277.91574833519013          -57.073601918136958          7039.3802666067158     
   275.22886179532117          277.91342143963669          -57.993235374420635          7191.3133088680588     
   277.88023496609310          277.91104372664597          -58.918659239339462          7346.5969593303234     
   280.54751637588964          277.90861487304147          -59.849608696871769          7505.2806061104075     
   283.23080147414498          277.90613456839952          -60.785817772520417          7667.4134878343320     
   285.93018628298984          277.90360251508633          -61.727019592551834          7833.0446796667420     
   288.64576740068776          277.90101842828682          -62.672946648337955          8002.2230797748107     
   291.37764200509190          277.89838203602710          -63.623331065503749          8174.9973962613376     
   294.12590785712246          277.89569307918742          -64.577904876119291          8351.4161345980338     
   296.89066330426522          277.89295131150794          -65.536400294192973          8531.5275855915697     
