 #              _____________________  _______________________             #
 #              ___  __ \__  __ \_  / / /_  /___  ____/_  ___/             #
 #              __  / / /_  /_/ /  / / /_  __/_  __/  _____ \              #
 #              _  /_/ /_  _, _// /_/ / / /_ _  /___  ____/ /              #
 #              /_____/ /_/ |_| \____/  \__/ /_____/  /____/               #
 #                                                                         #
  
 #        time                      T            heat flux [W.L-2]   in    x              directions   cumulative flux
 #-----------------------------------------------------------------------------------------------

   0.0000000000000000          10.000000000000000          -0.0000000000000000          0.0000000000000000     
   1.0000000000000000          10.000000000000000          -3.3892888495756747E-012     0.0000000000000000     
   2.0060000000000002          9.9999999999999964          -4.0106584719978823E-011     4.0106584719978823E-011
   3.0180360000000004          9.9999999999999734          -2.3612045652043874E-010     2.7764376397954016E-010
   4.0361442160000003          9.9999999999998757          -9.9136698850088537E-010     1.2809428455540221E-009
   5.0603610812960005          9.9999999999995417          -3.3565257240297826E-009     4.6982492624040921E-009
   6.0907232477837763          9.9999999999985700          -9.7430756795802567E-009     1.4677271693285477E-008
   7.1272675872704792          9.9999999999960547          -2.5136660752878343E-008     4.0577135924889456E-008
   8.1700311927941023          9.9999999999901288          -5.9051014744683986E-008     1.0178613099943746E-007
   9.2190513799508675          9.9999999999771934          -1.2850375696872099E-007     2.3578517193947233E-007
   10.274365688230573          9.9999999999507079          -2.6234677363849323E-007     5.1099223352169791E-007
   11.336011882359955          9.9999999998993445          -5.0734208301164964E-007     1.0463975929163217E-006
   12.404027953654115          9.9999999998042792          -9.3641644838319643E-007     2.0405405514624965E-006
   13.478452121376039          9.9999999996353282          -1.6595754530627873E-006     3.8129938068588393E-006
   14.559322834104295          9.9999999993456186          -2.8380102854485693E-006     6.8622206457881798E-006
   15.646678771108920          9.9999999988643360          -4.7019270930213577E-006     1.1944395934018471E-005
   16.740558843735574          9.9999999980871230          -7.5726937254528309E-006     2.0178609415507284E-005
   17.841002196797987          9.9999999968635720          -1.1889866488777821E-005     3.3184697433772775E-005
   18.948048209978776          9.9999999949812182          -1.8243710371914454E-005     5.3260867247741843E-005
   20.061736499238648          9.9999999921453320          -2.7413770848432655E-005     8.3609172971750914E-005
   21.182106918234080          9.9999999879537995          -4.0414071173155161E-005     1.2861785075860880E-004
   22.309199559743483          9.9999999818662513          -5.8545463337779137E-005     1.9421045604863809E-004
   23.443054757101944          9.9999999731666005          -8.3455630346112092E-005     2.8827268290426998E-004
   24.583713085644554          9.9999999609180108          -1.1720716347005022E-004     4.2116863437242913E-004
   25.731215364158420          9.9999999439093745          -1.6235413023909763E-004     6.0635922520294776E-004
   26.885602656343369          9.9999999205922361          -2.2202742068814583E-004     8.6113619633515200E-004
   28.046916272281429          9.9999998890070803          -3.0002912267095699E-004     1.2074860028319042E-003
   29.215197769915118          9.9999998466979498          -4.0093608723067127E-004     1.6730985400538125E-003
   30.390488956534607          9.9999997906142291          -5.3021276254599766E-004     2.2925363003455457E-003
   31.572831890273815          9.9999997169984969          -6.9433325295740155E-004     3.1085800531232212E-003
   32.762268881615455          9.9999996212593327          -9.0091252399013093E-004     4.1737676097801067E-003
   33.958842494905149          9.9999994978279521          -1.1588465065212087E-003     5.5521425119234667E-003
   35.162595549874581          9.9999993399976344          -1.4784608289477072E-003     7.3212297281246988E-003
   36.373571123173825          9.9999991397448422          -1.8716677401386034E-003     9.5742554882042724E-003
   37.591812549912866          9.9999988875310901          -2.3521307548841673E-003     1.2422628377574917E-002
   38.817363425212342          9.9999985720845803          -2.9354364016039060E-003     1.5998698607566583E-002
   40.050267605763615          9.9999981801607980          -3.6392724306088019E-003     2.0458812120352457E-002
   41.290569211398200          9.9999976962812216          -4.4836116892607069E-003     2.5986675716010543E-002
   42.538312626666588          9.9999971024494805          -5.4909008443874922E-003     3.2797048849684630E-002
   43.793542502426590          9.9999963778444059          -6.6862530554890037E-003     4.1139777072489184E-002
   45.056303757441150          9.9999954984894224          -8.0976435983310495E-003     5.1304181240371019E-002
   46.326641579985797          9.9999944368979641          -9.7561074413494327E-003     6.3623815717066309E-002
   47.604601429465710          9.9999931616946753          -1.1695937699332897E-002     7.8481607746654705E-002
   48.890229038042506          9.9999916372122684          -1.3954883846488186E-002     9.6315389006622440E-002
   50.183570412270761          9.9999898230640856          -1.6574348562517757E-002    0.11762382911277036     
   51.484671834744383          9.9999876736925160          -1.9599582051448336E-002    0.14297277949748999     
   52.793579865752847          9.9999851378935869          -2.3079872670689536E-002    0.17300203465983427     
   54.110341344947365          9.9999821583182040          -2.7068732705542966E-002    0.20843251628734100     
   55.435003393017048          9.9999786709505916          -3.1624078126077308E-002    0.25007388417879750     
   56.767613413375152          9.9999746045647342          -3.6808401200567858E-002    0.29883257629931237     
   58.108219093855404          9.9999698801596715          -4.2688934840264349E-002    0.35572027862586275     
   59.456868408418536          9.9999644103746732          -4.9337807600525953E-002    0.42186282375756956     
   60.813609618869044          9.9999580988854948          -5.6832188318721409E-002    0.49850951557873607     
   62.178491276582257          9.9999508397829526          -6.5254419373246553E-002    0.58704287550643985     
   63.551562224241749          9.9999425169353184          -7.4692137521463114E-002    0.68898880398487783     
   64.932871597587194          9.9999330033359080          -8.5238382039211344E-002    0.80602714998841973     
   66.322468827172713          9.9999221604377659          -9.6991688339035403E-002    0.94000267822772998     
   67.720403640135743          9.9999098374769684         -0.11005616721569472          1.0929364232894605     
   69.126726061976555          9.9998958707865206         -0.12454156870557478          1.2670374178440114     
   70.541486418348413          9.9998800831027328         -0.14056333004144647          1.4647147805699081     
   71.964735336858510          9.9998622828660793         -0.15824260722695324          1.6885901479635246     
   73.396523748879659          9.9998422635186444         -0.17770628982807443          1.9415104327737722     
   74.836902891372944          9.9998198028002463         -0.19908699867258442          2.2265608904572489     
   76.285924308721178          9.9997946620453995         -0.22252306622026255          2.5470784737645658     
   77.743639854573502          9.9997665854833517         -0.24815849948015287          2.9066654544083086     
   79.210101693700949          9.9997352995433726         -0.27614292541274055          3.3092032896596000     
   80.685362303863158          9.9997005121675446         -0.30663151884981116          3.7588667107265348     
   82.169474477686336          9.9996619121332664         -0.33978491306135139          4.2601380088933363     
   83.662491324552448          9.9996191683876852         -0.37576909315025364          4.8178214945841233     
   85.164466272499766          9.9995719293962395         -0.41475527256403755          5.4370581038487797     
   86.675453070134765          9.9995198225074944         -0.45691975308059063          6.1233401261980998     
   88.195505788555579          9.9994624533363101         -0.50244376867406715          6.8825260272185886     
   89.724678823286908          9.9993994051674875         -0.55151331377836343          7.7208553390726582     
   91.263026896226634          9.9993302383818037         -0.60431895647801781          8.6449635916958218     
   92.810605057603993          9.9992544899064182         -0.66105563726934591          9.6618972573950597     
   94.367468687949611          9.9991716726914461         -0.72192245404310351          10.779128681480117     
   95.933673500077305          9.9990812752144933         -0.78712243401395587          12.004570971625569     
   97.509275541077770          9.9989827610147763         -0.85686229336439956          13.346592818823666     
   99.094331194324241          9.9988755682584518         -0.93135218526119190          14.814033222811442     
   100.68889718149019          9.9987591093366497          -1.0108054367317441          16.416216094635356     
   102.29303056457913          9.9986327704977551          -1.0954382746789220          18.162964708478111     
   103.90678874796660          9.9984959115154481          -1.1854695411302458          20.064615974040265     
   105.53022948045439          9.9983478653940594          -1.2811203976830172          22.132034499705849     
   107.16341085733713          9.9981879381128387          -1.3826140189894283          24.376626415441947     
   108.80639132248115          9.9980154084108062          -1.4901752751296289          26.810352923074753     
   110.45922967041604          9.9978295276138684          -1.6040304026947594          29.445743540199341     
   112.12198504843853          9.9976295195059528          -1.7244066645177505          32.295909002748772     
   113.79471695872917          9.9974145802459020          -1.8515319980602847          35.374553790104251     
   115.47748526048154          9.9971838783319011          -1.9856346526569553          38.695988235782394     
   117.17035017204444          9.9969365546151465          -2.1269428159436061          42.275140186092230     
   118.87337227307670          9.9966717223643968          -2.2756842300278848          46.127566168903449     
   120.58661250671516          9.9963884673829959          -2.4320857981198856          50.269462034708312     
   122.31013218175545          9.9960858481797654          -2.5963731825627736          54.717673032614790     
   124.04399297484598          9.9957628961950853          -2.7687703953789398          59.489703284719482     
   125.78825693269505          9.9954186160831693          -2.9494993826088138          64.603724623469631     
   127.54298647429123          9.9950519860514859          -3.1387796039030254          70.078584758189479     
   129.30824439313696          9.9946619582579093          -3.3368276089506481          75.933814738828900     
   131.08409385949579          9.9942474592659618          -3.5438566124160529          82.189635687150201     
   132.87059842265276          9.9938073905582971          -3.7600760691890991          88.866964768088238     
   134.66782201318867          9.9933406291081646          -3.9856912517601772          95.987420376692626     
   136.47582894526781          9.9928460280084845          -4.2209028316140822          103.57332651902931     
   138.29468391893943          9.9923224171576468          -4.4659064665039532          111.64771636848548     
   140.12445202245306          9.9917686040031644          -4.7208923772424640          120.23433494900131     
   141.96519873458777          9.9911833743372451          -4.9860449954369912          129.35764104433571     
   143.81698992699529          9.9905654931425119          -5.2615425445856348          139.04280818403865     
   145.67989186655726          9.9899137054935334          -5.5475566778352468          149.31572477943553     
   147.55397121775661          9.9892267375054313          -5.8442521209447404          160.20299339083266     
   149.43929504506315          9.9885032973289771          -6.1517863311668348          171.73192912706278     
   151.33593081533354          9.9877420761896278          -6.4703091734186291          183.93055718174901     
   153.24394640022555          9.9869417494677712          -6.7999626150041141          196.82760951386712     
   155.16341007862690          9.9861009778172036          -7.1408804400014718          210.45252068324038     
   157.09439053909867          9.9852184083187954          -7.4931879843065836          224.83542285455030     
   159.03695688233327          9.9842926756661097          -7.8570018921614526          240.00713998620373     
   160.99117862362726          9.9833224033796348          -8.2324298948850529          255.99918122304572     
   162.95712569536903          9.9823062050462656          -8.6195706123478057          272.84373351431464     
   164.93486844954126          9.9812426855805150          -9.0185133775914466          290.57365348045448     
   166.92447766023849          9.9801304425039579          -9.4293380848536064          309.22245855441383     
   168.92602452619994          9.9789680672394390          -9.8521150611350876          328.82431742489729     
   170.93958067335714          9.9777541464164443          -10.286904961276639          349.41403981058363     
   172.96521815739729          9.9764872631842376          -10.733758686419351          371.02706559572528     
   175.00300946634167          9.9751659985292918          -11.192717325579396          393.69945335868442     
   177.05302752313972          9.9737889325936226          -11.663812119944042          417.46786832586656     
   179.11534568827855          9.9723546459908210          -12.147064449440091          442.36956978430840     
   181.19003776240822          9.9708617211165045          -12.642485840946669          468.44239798660328     
   183.27717798898269          9.9693087434502292          -13.150077997513137          495.72476058223077     
   185.37684105691659          9.9676943028458584          -13.669832847803232          524.25561860942969     
   187.48910210325809          9.9660169948076280          -14.201732614942113          554.07447208169594     
   189.61403671587763          9.9642754217492637          -14.745749903847296          585.22134520268651     
   191.75172093617289          9.9624681942336970          -15.301847806100950          617.73677124290691     
   193.90223126178992          9.9605939321910473          -15.869980021307851          651.66177711085777     
   196.06564464936065          9.9586512661127884          -16.450090993886302          687.03786765055008     
   198.24203851725682          9.9566388382201652          -17.042116064141457          723.90700969624811     
   200.43149074836035          9.9545553036051189          -17.645981632458653          762.31161591413945     
   202.63407969285052          9.9523993313422299          -18.261605335387802          802.29452845923663     
   204.84988417100763          9.9501696055703519          -18.888896232362512          843.89900247426021     
   207.07898347603367          9.9478648265428635          -19.527755001752240          887.16868945549754     
   209.32145737688987          9.9454837116456893          -20.178074144924409          932.14762050871252     
   211.57738612115119          9.9430249963824533          -20.839738196971254          978.88018951609661     
   213.84685043787809          9.9404874353263573          -21.512623942737726          1027.4111362330034     
   216.12993154050537          9.9378698030386623          -22.196600636837289          1077.7855293309433     
   218.42671112974841          9.9351708949537709          -22.891530226342304          1130.0487494009262     
   220.73727139652689          9.9323895282311874          -23.597267574930104          1184.2464719289321     
   223.06169502490604          9.9295245425748035          -24.313660687373051          1240.4246502531105     
   225.40006519505548          9.9265748010200952          -25.040550933398940          1298.6294985103348     
   227.75246558622581          9.9235391906899064          -25.777773270107044          1358.9074745780285     
   230.11898037974316          9.9204166235196407          -26.525156462372895          1421.3052630159689     
   232.49969426202162          9.9172060369526225          -27.282523300855935          1485.8697580119265     
   234.89469242759375          9.9139063946064212          -28.049690817493161          1552.6480463347511     
   237.30406058215931          9.9105166869108388          -28.826470498600273          1621.6873902988179     
   239.72788494565228          9.9070359317181218          -29.612668495911990          1693.0352107445751     
   242.16625225532619          9.9034631748858253          -30.408085836122353          1766.7390700413534     
   244.61924976885814          9.8997974908325279          -31.212518629621183          1842.8466551204097     
   247.08696526747130          9.8960379830664138          -32.025758279300462          1921.4057605485091     
   249.56948705907612          9.8921837846864591          -32.847591690338454          2002.4642716548738     
   252.06690398143058          9.8882340588557582          -33.677801481930928          2086.0701477271086     
   254.57930540531916          9.8841879973494411          -34.516167364588398          2172.2714081982504     
   257.10678123775108          9.8800448263524334          -35.362462978280014          2261.1161105370884     
   259.64942192517759          9.8758038017471552          -36.216459403478467          2352.6523364156319     
   262.20731845672867          9.8714642110710979          -37.077924332284127          2446.9281754282188     
   264.78056236746903          9.8670253738325027          -37.946622306248692          2543.9917090094505     
   267.36924574167386          9.8624866417907011          -38.822314959731770          2643.8909945804253     
   269.97346121612389          9.8578473991998585          -39.704761268625845          2746.6740499532884     
   272.59330198342064          9.8531070630149351          -40.593717804214144          2852.3888380244812     
   275.22886179532117          9.8482650830587222          -41.488938991862376          2961.0832517872495     
   277.88023496609310          9.8433209421489014          -42.390177374232536          3072.8050996941115     
   280.54751637588964          9.8382741561841609          -43.297183878708410          3187.6020914000978     
   283.23080147414498          9.8331242741884068          -44.209708088709085          3305.5218239176443     
   285.93018628298984          9.8278708783122450          -45.127498518628236          3426.6117682142194     
   288.64576740068776          9.8225135837908439          -46.050302892156651          3550.9192562840121     
   291.37764200509190          9.8170520388574189          -46.977868423853472          3678.4914687255268     
   294.12590785712246          9.8114859246114925          -47.909942103887957          3809.3754228576104     
   296.89066330426522          9.8058149548411127          -48.846270986013955          3943.6179614075031     
