 #              _____________________  _______________________             #
 #              ___  __ \__  __ \_  / / /_  /___  ____/_  ___/             #
 #              __  / / /_  /_/ /  / / /_  __/_  __/  _____ \              #
 #              _  /_/ /_  _, _// /_/ / / /_ _  /___  ____/ /              #
 #              /_____/ /_/ |_| \____/  \__/ /_____/  /____/               #
 #                                                                         #
  
 #        time                      T            heat flux [W.L-2]   in    x              directions   cumulative flux
 #-----------------------------------------------------------------------------------------------

   0.0000000000000000          10.000000000000000          -0.0000000000000000          0.0000000000000000     
   1.0000000000000000          9.4274556195231192          -176.56559877024156          0.0000000000000000     
   2.0060000000000002          8.9010559920585717          -333.67326348796394          333.67326348796394     
   3.0180360000000004          8.4163777838802627          -473.35412301036189          809.86751123638805     
   4.0361442160000003          7.9694270449916527          -597.43620456569863          1414.4944579602393     
   5.0603610812960005          7.5565989411923846          -707.56322632817057          2134.8703920244170     
   6.0907232477837763          7.1746409975645449          -805.21196124466280          2959.5820628692700     
   7.1272675872704792          6.8206195912042817          -891.70819686986511          3878.3644524710126     
   8.1700311927941023          6.4918894417276167          -968.24134706553195          4881.9895400287696     
   9.2190513799508675          6.1860658608047236          -1035.8777888277459          5962.1651979886283     
   10.274365688230573          5.9009995357736891          -1095.5730061721156          7111.4433979672003     
   11.336011882359955          5.6347536366102409          -1148.1826261212639          8323.1369518311367     
   12.404027953654115          5.3855830497517942          -1194.4724314681628          9591.2440626917814     
   13.478452121376039          5.1519155562046866          -1235.1274324762928          10910.380010672754     
   14.559322834104295          4.9323347848153212          -1270.7600758985775          12275.715347594332     
   15.646678771108920          4.7255647844408557          -1301.9176652221790          13682.920022316535     
   16.740558843735574          4.5304560709439805          -1329.0890612463265          15128.112903870633     
   17.841002196797987          4.3459730164236934          -1352.7107272149647          16607.816212399390     
   18.948048209978776          4.1711824588681337          -1373.1721779076331          18118.914408188080     
   20.061736499238648          4.0052434204812837          -1390.8208874357522          19658.617126672394     
   21.182106918234080          3.8473978323087401          -1405.9667060539873          21224.425782293998     
   22.309199559743483          3.6969621714924354          -1418.8858321089469          22814.103496520580     
   23.443054757101944          3.5533199255487475          -1429.8243813245485          24425.648035362214     
   24.583713085644554          3.4159148055205257          -1439.0015919683008          26057.267469422572     
   25.731215364158420          3.2842446367343228          -1446.6127010516007          27707.358295052603     
   26.885602656343369          3.1578558622335233          -1452.8315235814568          29374.485778659098     
   28.046916272281429          3.0363385997897909          -1457.8127639895347          31057.366307793636     
   29.215197769915118          2.9193221987525280          -1461.6940862041604          32754.851552438668     
   30.390488956534607          2.8064712479110350          -1464.5979663881669          34465.914258041892     
   31.572831890273815          2.6974819900477911          -1466.6333501263357          36189.635508447594     
   32.762268881615455          2.5920791029833787          -1467.8971337967059          37925.193312048163     
   33.958842494905149          2.4900128106821935          -1468.4754879868369          39671.852378338175     
   35.162595549874581          2.3910562914299258          -1468.4450391061230          41428.954964698714     
   36.373571123173825          2.2950033532339003          -1467.8739237861530          43195.912684766263     
   37.591812549912866          2.2016663494594395          -1466.8227292411734          44972.199180237461     
   38.817363425212342          2.1108743103214791          -1465.3453314688513          46757.343567511474     
   40.050267605763615          2.0224712682214232          -1463.4896419974857          48550.924579253209     
   41.290569211398200          1.9363147570739547          -1461.2982728198435          50352.565328845150     
   42.538312626666588          1.8522744677250955          -1458.8091281869190          52161.928632849769     
   43.793542502426590          1.7702310433379094          -1456.0559310587521          53978.712833090809     
   45.056303757441150          1.6900750002313134          -1453.0686912162244          55802.648065836896     
   46.326641579985797          1.6117057611147270          -1449.8741213203086          57633.492930888460     
   47.604601429465710          1.5350307889800177          -1446.4960065568873          59471.031518177464     
   48.890229038042506          1.4599648111045340          -1442.9555329199043          61315.070753833992     
   50.183570412270761          1.3864291236961903          -1439.2715786575948          63165.438031596103     
   51.484671834744383          1.3143509686839305          -1435.4609729306478          65021.979098977252     
   52.793579865752847          1.2436629750339336          -1431.5387253026443          66884.556170794604     
   54.110341344947365          1.1743026577623630          -1427.5182292975637          68753.046245533173     
   55.435003393017048          1.1062119685273089          -1423.4114429126375          70627.339602605221     
   56.767613413375152          1.0393368923231476          -1419.2290486635109          72507.338460887811     
   58.108219093855404         0.97362708537655662          -1414.9805954594030          74392.955781009281     
   59.456868408418536         0.90903554986098767          -1410.6746243554828          76284.114195729591     
   60.813609618869044         0.84551834151113980          -1406.3187800053038          78180.745054441009     
   62.178491276582257         0.78303430663595264          -1401.9199094353075          80082.787569322943     
   63.551562224241749         0.72154162309803271          -1397.4858751140575          81990.190407179427     
   64.932871597587194         0.66100775964169323          -1393.0202130756118          83902.905991255990     
   66.322468827172713         0.60139853286736344          -1388.5278987834654          85820.892592997247     
   67.720403640135743         0.54268174443760497          -1384.0133999894490          87744.113779331819     
   69.126726061976555         0.48482702296738517          -1379.4807314763591          89672.537917674330     
   70.541486418348413         0.42780568110879774          -1374.9335035948177          91606.137732319869     
   71.964735336858510         0.37159058622857982          -1370.3749653106456          93544.889906605837     
   73.396523748879659         0.31615604325088253          -1365.8080423970714          95488.774725839859     
   74.836902891372944         0.26147768839306873          -1361.2353713332409          97437.775756548101     
   76.285924308721178         0.20753239266082563          -1356.6593294057923          99391.879558093118     
   77.743639854573502         0.15429817409233351          -1352.0820614528277          101351.07542315063     
   79.210101693700949         0.10175411785121385          -1347.5055036386645          103315.35514392628     
   80.685362303863158          4.9880303365932022E-002     -1342.9314046025925          105284.71280134180     
   82.169474477686336         -1.3422621994778061E-003     -1499.8286260487569          107497.35089534523     
   83.662491324552448         -5.1931704780902588E-002     -1521.5402904537900          109755.48736337015     
   85.164466272499766        -0.10190533912435557          -1434.9007250900527          111897.81831951001     
   86.675453070134765        -0.15127971987800376          -1358.4104750269983          113938.11682202977     
   88.195505788555579        -0.20007068851851767          -1336.8199122950437          115958.03406032316     
   89.724678823286908        -0.24829341651570680          -1335.7433502095532          117988.43437092171     
   91.263026896226634        -0.29596244509624592          -1339.0844040972236          120036.12613289646     
   92.810605057603993        -0.34309172192893955          -1342.7728750839879          122101.77819767765     
   94.367468687949611        -0.38969463501986951          -1345.8699492178378          124184.61713914122     
   95.933673500077305        -0.43578404407546095          -1348.2125279192685          126283.60018983507     
   97.509275541077770        -0.48137230956455268          -1349.8377357644697          128397.72254718094     
   99.094331194324241        -0.47498107066938927          -1338.0449543250666          130505.94890816588     
   100.68889718149019        -0.46926634333745404          -1326.6879228034379          132608.82310029928     
   102.29303056457913        -0.46411469890405832          -1315.7485300481303          134706.87095397763     
   103.90678874796660        -0.45941667269176467          -1305.2035262231025          136800.59150211752     
   105.53022948045439        -0.45507837532590101          -1295.0319407664358          138890.45989427750     
   107.16341085733713        -0.45102381322624824          -1285.2137696688987          140976.92827791220     
   108.80639132248115        -0.44719447245271704          -1275.7327267063004          143060.43120904875     
   110.45922967041604        -0.44354658821405141          -1266.5757217825485          145141.39037756316     
   112.12198504843853        -0.44004787497362707          -1257.7328287780808          147220.21942842420     
   113.79471695872917        -0.43667457508805896          -1249.1959691806510          149297.32674438335     
   115.47748526048154        -0.43340910296846979          -1240.9595679372762          151373.11941305251     
   117.17035017204444        -0.43023828190194668          -1233.0196080583034          153448.00572493215     
   118.87337227307670        -0.42715207049166848          -1225.3727003178744          155522.39617288735     
   120.58661250671516        -0.42414266025656844          -1218.0171552982588          157596.70630779673     
   122.31013218175545        -0.42120384216837620          -1210.9520293518058          159671.35804548839     
   124.04399297484598        -0.41833056337124119          -1204.1775052517671          161746.78166803074     
   125.78825693269505        -0.41551861672681173          -1197.6939282589585          163823.41621236154     
   127.54298647429123        -0.41276202620611180          -1191.5032687904693          165901.71241977211     
   129.30824439313696        -0.41006029560675261          -1185.6082689729260          167982.13427409960     
   131.08409385949579        -0.40741061146049440          -1180.0127317296035          170065.16109312410     
   132.87059842265276        -0.40481046233450069          -1174.7206890790444          172151.28820194578     
   134.66782201318867        -0.40225757826818248          -1169.7380698937488          174241.03060150938     
   136.47582894526781        -0.39974988706673314          -1165.0717495238239          176334.92503442054     
   138.29468391893943        -0.39728548272528602          -1160.7299328318129          178433.53279925219     
   140.12445202245306        -0.39462349418341003          -1156.7551841328134          180537.50271923258     
   141.96519873458777        -0.39202791504787360          -1153.1491646549046          182647.49827931152     
   143.81698992699529        -0.38949249547344372          -1149.9269089605355          184764.22245617586     
   145.67989186655726        -0.38701183434912367          -1147.1058553532412          186888.42297587809     
   147.55397121775661        -0.38458125285616868          -1144.7065057039326          189020.89894558315     
   149.43929504506315        -0.38219669076312068          -1142.7532307620188          191162.50917887059     
   151.33593081533354        -0.37985462271799730          -1141.2732975781003          193314.17892026328     
   153.24394640022555        -0.37755199209815765          -1140.2997251539321          195476.91216781971     
   155.16341007862690        -0.37528616035308954          -1139.8705794754330          197651.80299821871     
   157.09439053909867        -0.37305487017417116          -1140.0302759564199          199840.04970519492     
   159.03695688233327        -0.37085622121756745          -1140.8311941066158          202042.97244971147     
   160.99117862362726        -0.36868645524563243          -1142.3348171232133          204262.03361816006     
   162.95712569536903        -0.36654668866098628          -1144.6124688980387          206498.86019023680     
   164.93486844954126        -0.36443594734286788          -1147.7483597347511          208755.27271715374     
   166.92447766023849        -0.36235372581780806          -1151.8424591429809          211033.32079467169     
   168.92602452619994        -0.36029992411103157          -1157.0142570803291          213335.32701746674     
   170.93958067335714        -0.35827489007134461          -1163.4046002050650          215663.93584885230     
   172.96521815739729        -0.35627947337357690          -1171.1846636796986          218022.18192786080     
   175.00300946634167        -0.35431509130144379          -1180.5604422044125          220413.56941176506     
   177.05302752313972        -0.35238380598270891          -1191.7821056439479          222842.17262880172     
   179.11534568827855        -0.35048841196241065          -1205.1552680280454          225312.76268950451     
   181.19003776240822        -0.34863253172321940          -1221.0564245489968          227830.96953451139     
   183.27717798898269        -0.34682071483365701          -1239.9481770857235          230403.48018984267     
   185.37684105691659        -0.34505853365880934          -1262.4087752498840          233038.30432704728     
   187.48910210325809        -0.34335266488034688          -1289.1599827491425          235745.10593148397     
   189.61403671587763        -0.34171094145572734          -1321.1079984593146          238535.63089463976     
   191.75172093617289        -0.34014235440685442          -1359.3939168504016          241424.25408073963     
   193.90223126178992        -0.33865697879764567          -1405.4553659693045          244428.67383890151     
   196.06564464936065        -0.33726579506238502          -1461.0974706329073          247570.77903623052     
   198.24203851725682        -0.33597877134910203          -1528.5964758127500          250877.76511619729     
   200.43149074836035        -0.33480927328035687          -1610.6759647844201          254383.23040912184     
   202.63407969285052        -0.33376855149081347          -1710.5383946183729          258128.37251360729     
   204.84988417100763        -0.33286665111669717          -1831.6296180573670          262162.69966074120     
   207.07898347603367        -0.33211165040879859          -1976.9849730238857          266543.31181721680     
   209.32145737688987        -0.33150897280666669          -2147.7181911646580          271330.78894453374     
   211.57738612115119        -0.33106091216112515          -2339.9665078967073          276578.10276736971     
   213.84685043787809        -0.33076648941184222          -2539.3819063450228          282306.76740255061     
   216.12993154050537        -0.33062169862684909          -2711.5982625659590          288460.64290074271     
   218.42671112974841        -0.33061920330663980          -2766.5437627909741          294776.88668516214     
   220.73727139652689        -0.33075195751109432          -2747.3750462753505          301087.00161544298     
   223.06169502490604        -0.33101129568554721          -2729.5387582636977          307393.76541691896     
   225.40006519505548        -0.33138878419636270          -2712.9942678820321          313699.91339684121     
   227.75246558622581        -0.33187689969886480          -2697.6921709606308          320008.11629766121     
   230.11898037974316        -0.33246949440820894          -2683.5791259631974          326320.96888331359     
   232.49969426202162        -0.33316204564685320          -2670.6017387795259          332640.98740572849     
   234.89469242759375        -0.33395106204983566          -2658.7041628158640          338970.60131501575     
   237.30406058215931        -0.33483596803830901          -2647.8447640116337          345312.18466754339     
   239.72788494565228        -0.33581709476256832          -2637.9822128657866          351668.05500353262     
   242.16625225532619        -0.33689607418747941          -2629.0797566304541          358040.48257121962     
   244.61924976885814        -0.33807565436197828          -2621.0999871855047          364431.68709535949     
   247.08696526747130        -0.33935948812954048          -2614.0228948403033          370843.87875671836     
   249.56948705907612        -0.34075136806195633          -2607.8124862075169          377279.21804640954     
   252.06690398143058        -0.34225663941637446          -2602.4446496818550          383739.84360069013     
   254.57930540531916        -0.34379379809742122          -2597.1389270211912          390225.98230673833     
   257.10678123775108        -0.34544445128274109          -2592.6122174789880          396739.66493352345     
   259.64942192517759        -0.34721321197171312          -2588.8310841532248          403282.87293296924     
   262.20731845672867        -0.34910489702661379          -2585.7563468868411          409857.52222833503     
   264.78056236746903        -0.35112399818599183          -2583.3573925206147          416465.48314242030     
   267.36924574167386        -0.35327602714507950          -2581.5925170202568          423108.55036685558     
   269.97346121612389        -0.35556619434268327          -2580.4193932195271          429788.43914855865     
   272.59330198342064        -0.35799990710006441          -2579.7929265123876          436506.77580865897     
   275.22886179532117        -0.36058248168634227          -2579.6641168455517          443265.08502790349     
   277.88023496609310        -0.36332043529446217          -2579.9805452563496          450064.77806846634     
   280.54751637588964        -0.36622054838977908          -2580.6980124861302          456907.17154063651     
   283.23080147414498        -0.36929011549667495          -2581.7586107338111          463793.44828762900     
   285.93018628298984        -0.37253819634697588          -2583.1054917457195          470724.65676085179     
   288.64576740068776        -0.37597495223571098          -2584.6908064936056          477701.73185946164     
   291.37764200509190        -0.37961230809904234          -2586.4561007577290          484725.46320843394     
   294.12590785712246        -0.38346403121769684          -2588.3461650237796          491796.50036406924     
   296.89066330426522        -0.38754713139056923          -2590.3039166790772          498915.34416465933     
