 #              _____________________  _______________________             #
 #              ___  __ \__  __ \_  / / /_  /___  ____/_  ___/             #
 #              __  / / /_  /_/ /  / / /_  __/_  __/  _____ \              #
 #              _  /_/ /_  _, _// /_/ / / /_ _  /___  ____/ /              #
 #              /_____/ /_/ |_| \____/  \__/ /_____/  /____/               #
 #                                                                         #
  
 #        time                      T            heat flux [W.L-2]   in    x              directions   cumulative flux
 #-----------------------------------------------------------------------------------------------

   0.0000000000000000          283.14999999999998          -0.0000000000000000          0.0000000000000000     
   1.0000000000000000          282.57746164652895          -185.40105879391203          0.0000000000000000     
   2.0060000000000002          282.05108176863632          -350.04374266328318          350.04374266328318     
   3.0180360000000004          281.56644138108226          -496.14779062582005          849.16842003285819     
   4.0361442160000003          281.11954844088297          -625.69999599605967          1482.3993411807264     
   5.0603610812960005          280.70679829036806          -740.47833229689229          2236.2864150621708     
   6.0907232477837763          280.32493745111634          -842.07356105943040          3098.7523581191003     
   7.1272675872704792          279.97103053661903          -931.90859863792741          4058.9557207802627     
   8.1700311927941023          279.64243005792468          -1011.2558850446918          5107.1672841959535     
   9.2190513799508675          279.33674890513942          -1081.2529684868725          6234.6585280984445     
   10.274365688230573          279.05183529771585          -1142.9164940502828          7433.6010025916257     
   11.336011882359955          278.78575000742438          -1197.1547631947499          8696.9755534162468     
   12.404027953654115          278.53674566932381          -1244.7790118668331          10018.490453896804     
   13.478452121376039          278.30324800762457          -1286.5135386518893          11392.507589114542     
   14.559322834104295          278.08383881483951          -1323.0048000949996          12813.975920348723     
   15.646678771108920          277.87724053386745          -1354.8295778056736          14278.371531736862     
   16.740558843735574          277.68230230354015          -1382.5023109626534          15781.643627484718     
   17.841002196797987          277.49798733860001          -1406.4816781304296          17320.165907706090     
   18.948048209978776          277.32336152500488          -1427.1765037091973          18890.692804859729     
   20.061736499238648          277.15758312085461          -1444.9510567093978          20490.320111431232     
   21.182106918234080          276.99989346207792          -1460.1298027465887          22116.449573549435     
   22.309199559743483          276.84960858030865          -1473.0016640810609          23766.757065116901     
   23.443054757101944          276.70611164812249          -1483.8238370942865          25439.163993202121     
   24.583713085644554          276.56884617401715          -1492.8252117176396          27131.811618255910     
   25.731215364158420          276.43730987620705          -1500.2094329487963          28843.038002507143     
   26.885602656343369          276.31104917050459          -1506.1576406486663          30571.357326952559     
   28.046916272281429          276.18965421328500          -1510.8309202582836          32315.441341938815     
   29.215197769915118          276.07275444581506          -1514.3724938682544          34074.102738670095     
   30.390488956534607          275.96001459108561          -1516.9096781828114          35846.280249272546     
   31.572831890273815          275.85113105875524          -1518.5556333035533          37631.025301485592     
   32.762268881615455          275.74582871791205          -1519.4109238971828          39427.490070801585     
   33.958842494905149          275.64385800111535          -1519.5649121746446          41234.916788086921     
   35.162595549874581          275.54499230661412          -1519.0970001792105          43052.628174528894     
   36.373571123173825          275.44902566877767          -1518.0777371345437          44880.018888285682     
   37.591812549912866          275.35577066964078          -1516.5698060245520          46716.547878584592     
   38.817363425212342          275.26505656707457          -1514.6289021516943          48561.731553322061     
   40.050267605763615          275.17672761747423          -1512.3045151287583          50415.137675557460     
   41.290569211398200          275.09064157301447          -1509.6406245966436          52276.379912752702     
   42.538312626666588          275.00666833549212          -1506.6763189063990          54145.112970263908     
   43.793542502426590          274.92468875055505          -1503.4463450565243          56021.028247517512     
   45.056303757441150          274.84459352773689          -1499.9815973182663          57903.849961561602     
   46.326641579985797          274.76628227318025          -1496.3095512103478          59793.331688338250     
   47.604601429465710          274.68966262325739          -1492.4546487886639          61689.253277127078     
   48.890229038042506          274.61464946849787          -1488.4386405889720          63591.418098214250     
   50.183570412270761          274.54116425831398          -1484.2808889975956          65499.650587992466     
   51.484671834744383          274.46913437799401          -1479.9986373174547          67413.794059436565     
   52.793579865752847          274.39849259031564          -1475.6072483402806          69333.708749264493     
   54.110341344947365          274.32917653492586          -1471.1204158276505          71259.270076121815     
   55.435003393017048          274.26112827934958          -1466.5503519350846          73190.367086849103     
   56.767613413375152          274.19429391613403          -1461.9079532843102          75126.901070336055     
   58.108219093855404          274.12862320121462          -1457.2029480927790          77068.784320659863     
   59.456868408418536          274.06406922910713          -1452.4440265063927          79015.939033173941     
   60.813609618869044          274.00058814100032          -1447.6389560432888          80968.296318976616     
   62.178491276582257          273.93813886223825          -1442.7946838464491          82925.795324770006     
   63.551562224241749          273.87667872734210          -1437.9192556703526          84888.384942107106     
   64.932871597587194          273.81617633705935          -1433.0161034308016          86856.017721256154     
   66.322468827172713          273.75659754813103          -1428.0902628692108          88828.652187340762     
   67.720403640135743          273.69791020093993          -1423.1462474176442          90806.252270047349     
   69.126726061976555          273.64008396130907          -1418.1881049470626          92788.786793282925     
   70.541486418348413          273.58309017753493          -1413.2194680474861          94776.229018180049     
   71.964735336858510          273.52690175104686          -1408.2435985898560          96768.556233579424     
   73.396523748879659          273.47149301925617          -1403.2634272339906          98765.749388774959     
   74.836902891372944          273.41683964931883          -1398.2815884692527          100767.79276388776     
   76.285924308721178          273.36291854167064          -1393.3004517084396          102774.67367375505     
   77.743639854573502          273.30970774232321          -1388.3221488925869          104786.38220167934     
   79.210101693700949          273.25718636301480          -1383.3485990130991          106802.91095979378     
   80.685362303863158          273.20533450841356          -1378.3815299086127          108824.25487316286     
   82.169474477686336          273.15413320965365          -1373.4224976535925          110850.41098506180     
   83.662491324552448          273.10356436356682          -3317.0878756620391          115773.34148297309     
   85.164466272499766          273.05361067703899          -3600.6782407902547          121149.21475661719     
   86.675453070134765          273.00425561598354          -3936.2669485114602          127061.38910171443     
   88.195505788555579          272.95548335847877          -3876.6369551652642          132918.93636019310     
   89.724678823286908          272.90727875166419          -3371.2623116348582          138043.43280150328     
   91.263026896226634          272.85962727203542          -2653.4782177853581          142101.06014038762     
   92.810605057603993          272.81251498881437          -2032.1573536779681          145227.22548932841     
   94.367468687949611          272.76592853010629          -1647.4042204621139          147776.71228387646     
   95.933673500077305          272.71985505158642          -1456.4044047661280          150044.13533273202     
   97.509275541077770          272.67428220748337          -1374.0237252700249          152196.13790322756     
   99.094331194324241          272.66006404757735          -1349.6065805629628          154322.58078611022     
   100.68889718149019          272.64681695423604          -1329.9310026299088          156430.59544025650     
   102.29303056457913          272.63411731388038          -1313.4203115409748          158524.93079589264     
   103.90678874796660          272.62221299657915          -1299.3536480457626          160609.26735916125     
   105.53022948045439          272.61104217225090          -1287.0924324997877          162686.32330488387     
   107.16341085733713          272.60053553008385          -1276.2010605361099          164758.16008940231     
   108.80639132248115          272.59062241982082          -1266.3831862622089          166826.39352520317     
   110.45922967041604          272.58124287647576          -1257.4015110789153          168892.27964474840     
   112.12198504843853          272.57233395378364          -1249.1047788346877          170956.84792379511     
   113.79471695872917          272.56383548233083          -1241.3769007641354          173020.95404169356     
   115.47748526048154          272.55568954778721          -1234.1269937954351          175085.31764556625     
   117.17035017204444          272.54784529271069          -1227.2831095285517          177150.55075955699     
   118.87337227307670          272.54025686021566          -1220.7863248585454          179217.17709342585     
   120.58661250671516          272.53288295628670          -1214.5873129060208          181285.64613093820     
   122.31013218175545          272.52568640700042          -1208.6440930664194          183356.34381932905     
   124.04399297484598          272.51863373123524          -1202.9205361983659          185429.60103097695     
   125.78825693269505          272.51169473669489          -1197.3853527966712          187505.70054841196     
   127.54298647429123          272.50484214023953          -1192.0113881030015          189584.88305002567     
   129.30824439313696          272.49805121022405          -1186.7686817202516          191667.34111488133     
   131.08409385949579          272.49130179475924          -1181.6504718095430          193753.25896755094     
   132.87059842265276          272.48457096835136          -1176.6322592502645          195842.78073724109     
   134.66782201318867          272.47783967966825          -1171.6992574624078          197936.02680734533     
   136.47582894526781          272.47109015030287          -1166.8390436532254          200033.09746295729     
   138.29468391893943          272.46430557937435          -1162.0413151572081          202134.07621612388     
   140.12445202245306          272.45746985436443          -1157.2976572847351          204239.03281609472     
   141.96519873458777          272.45056726725267          -1152.6013230900408          206348.02595315251     
   143.81698992699529          272.44358223508175          -1147.9470276282991          208461.10566996413     
   145.67989186655726          272.43649902392571          -1143.3307603223284          210578.31550193761     
   147.55397121775661          272.42930147487323          -1138.7496193130110          212699.69437643129     
   149.43929504506315          272.42197273011993          -1134.2016713895443          214825.27830887822     
   151.33593081533354          272.41449784097261          -1129.6864027665472          216955.10300139821     
   153.24394640022555          272.40685501661738          -1125.2028776476102          219089.20302795584     
   155.16341007862690          272.39902364819312          -1120.7453269966691          221227.60257856036     
   157.09439053909867          272.39098127720052          -1116.3272820753546          223370.35224971251     
   159.03695688233327          272.38270327095466          -1111.9444301903268          225517.49521754045     
   160.99117862362726          272.37416247275439          -1107.5994272516161          227669.08058670536     
   162.95712569536903          272.36532882045481          -1103.2958001102984          229825.16522635927     
   164.93486844954126          272.35616892684101          -1099.0380673551556          231985.81589660887     
   166.92447766023849          272.34664561515507          -1094.8318939379460          234151.11174188129     
   168.92602452619994          272.33671740344215          -1090.6842793725971          236321.14723008370     
   170.93958067335714          272.32634195143379          -1086.6037747742437          238496.03561002496     
   172.96521815739729          272.31546381074997          -1082.6006151643987          240675.91273360539     
   175.00300946634167          272.30402497534942          -1078.6872391113984          242860.94203870522     
   177.05302752313972          272.29196049029315          -1074.8738486737693          245051.31062574423     
   179.11534568827855          272.27919765055123          -1071.1872865598491          247247.26390540443     
   181.19003776240822          272.26565517001052          -1067.6434736068179          249449.08443491568     
   183.27717798898269          272.25124235304122          -1064.2663502423077          251657.10939652630     
   185.37684105691659          272.23586319243390          -1061.0828174233923          253871.73802849761     
   187.48910210325809          272.21940170189475          -1058.1247360935467          256093.44345814054     
   189.61403671587763          272.20173498922662          -1055.4273770853717          258322.78159400035     
   191.75172093617289          272.18272886255062          -1053.0263772700052          260560.39379106276     
   193.90223126178992          272.16223832188268          -1050.9711483104793          262807.03823079169     
   196.06564464936065          272.14011379859073          -1049.3023743033348          265063.57382142550     
   198.24203851725682          272.11618898162783          -1048.0679344482021          267330.97802189435     
   200.43149074836035          272.09029815620715          -1047.3122605619112          269610.34200355376     
   202.63407969285052          272.06227662780879          -1047.0858211091465          271902.88639073807     
   204.84988417100763          272.03197177980007          -1047.4253371026778          274209.93385841930     
   207.07898347603367          271.99923747904762          -1048.3630817772939          276532.90146975603     
   209.32145737688987          271.96395623869785          -1049.9258166046891          278873.29037787847     
   211.57738612115119          271.92604870808850          -1052.1189129004672          281232.63958065497     
   213.84685043787809          271.88547148694454          -1054.9337800280969          283612.49501831265     
   216.12993154050537          271.84223687609460          -1058.3468963439909          286014.37553428399     
   218.42671112974841          271.79641841787929          -1062.3073835604912          288439.70944687235     
   220.73727139652689          271.74814367012414          -1066.7527617079336          290889.80541673175     
   223.06169502490604          271.69760527531889          -1071.5956292798928          293365.79169979936     
   225.40006519505548          271.64504419963748          -1076.7407357114650          295868.59330752544     
   227.75246558622581          271.62294600074569          -1079.2970975642613          298392.38944519858     
   230.11898037974316          271.60352702221667          -1081.5536477870062          300936.63666932442     
   232.49969426202162          271.58694164484240          -1083.5973043037072          303500.98572017468     
   234.89469242759375          271.57266561090069          -1085.5334214252709          306085.33020623907     
   237.30406058215931          271.56023482061818          -1087.4366367080229          308689.73895633069     
   239.72788494565228          271.54926026273228          -1089.3570877252650          311314.40123244625     
   242.16625225532619          271.53942418261181          -1091.3242174577088          313959.57945919014     
   244.61924976885814          271.53047566356616          -1093.3524253189942          316625.57427104068     
   247.08696526747130          271.52220309061420          -1095.4429482284627          319312.69309926120     
   249.56948705907612          271.51444041809219          -1097.5891113992202          322021.23076057009     
   252.06690398143058          271.50705366164033          -1099.7782507017280          324751.45423387014     
   254.57930540531916          271.49993444340072          -1101.9927182858673          327503.58949682867     
   257.10678123775108          271.49299496731226          -1104.2151346717553          330277.82117345731     
   259.64942192517759          271.48616411979219          -1106.4240487081365          333074.28121698857     
   262.20731845672867          271.47938442625536          -1108.5986640625636          335893.04928626074     
   264.78056236746903          271.47260964529551          -1110.7187611064001          338734.15295282350     
   267.36924574167386          271.46580284377654          -1112.7654018602409          341597.56974724290     
   269.97346121612389          271.45894026325220          -1114.7233246385970          344483.23548457318     
   272.59330198342064          271.45199349686180          -1116.5759316834094          347391.03980426159     
   275.22886179532117          271.44494484484653          -1118.3109068043298          350320.83630842017     
   277.88023496609310          271.43778077967011          -1119.9186313073469          353272.44884569244     
   280.54751637588964          271.43049103059207          -1121.3922024326200          356245.67804513511     
   283.23080147414498          271.42306775617311          -1122.7273308030894          359240.30778285669     
   285.93018628298984          271.41550479325713          -1123.9221336134779          362256.11129558110     
   288.64576740068776          271.40779697577108          -1124.9768449277574          365292.85670108133     
   291.37764200509190          271.39993951918711          -1125.8925835712462          368350.30934158358     
   294.12590785712246          271.39192746726235          -1126.6745054027647          371428.24281032296     
   296.89066330426522          271.38375519723962          -1127.3261099315796          374526.43466235034     
