 #              _____________________  _______________________             #
 #              ___  __ \__  __ \_  / / /_  /___  ____/_  ___/             #
 #              __  / / /_  /_/ /  / / /_  __/_  __/  _____ \              #
 #              _  /_/ /_  _, _// /_/ / / /_ _  /___  ____/ /              #
 #              /_____/ /_/ |_| \____/  \__/ /_____/  /____/               #
 #                                                                         #
  
 #        time                      T            heat flux [W.L-2]   in    x              directions   cumulative flux
 #-----------------------------------------------------------------------------------------------

   0.0000000000000000          283.14999999999998          -0.0000000000000000          0.0000000000000000     
   1.0000000000000000          283.14999999999998           1.9153853487985717E-011     0.0000000000000000     
   2.0060000000000002          283.14999999999998           1.9153853487985717E-011     1.9153853487985717E-011
   3.0180360000000004          283.14999999999992          -2.0963660991498929E-010     2.3004828306246495E-010
   4.0361442160000003          283.14999999999986          -1.0106294700652997E-009     1.2528416894294706E-009
   5.0603610812960005          283.14999999999947          -3.4899218134816515E-009     4.8059597609327590E-009
   6.0907232477837763          283.14999999999856          -1.0242030755494894E-008     1.5296020395590962E-008
   7.1272675872704792          283.14999999999600          -2.6492488327823694E-008     4.2592878064699497E-008
   8.1700311927941023          283.14999999999014          -6.2312448859505222E-008     1.0718249420957427E-007
   9.2190513799508675          283.14999999997718          -1.3563112188262016E-007     2.4861369188510924E-007
   10.274365688230573          283.14999999995064          -2.7687040039026676E-007     5.3905633112067524E-007
   11.336011882359955          283.14999999989919          -5.3543062573569620E-007     1.1041039315507113E-006
   12.404027953654115          283.14999999980415          -9.8827407606009414E-007     2.1533013431566432E-006
   13.478452121376039          283.14999999963527          -1.7515383823992754E-006     4.0239724850476447E-006
   14.559322834104295          283.14999999934543          -2.9952266264040571E-006     7.2421163602603717E-006
   15.646678771108920          283.14999999886402          -4.9623916546740406E-006     1.2605820164884652E-005
   16.740558843735574          283.14999999808663          -7.9921798186655296E-006     2.1296164340319166E-005
   17.841002196797987          283.14999999686285          -1.2548554358573729E-005     3.5022777893435299E-005
   18.948048209978776          283.14999999498002          -1.9254398455031074E-005     5.6211152690489438E-005
   20.061736499238648          283.14999999214336          -2.8932447910120340E-005     8.8240703800948966E-005
   21.182106918234080          283.14999998795076          -4.2652917269175096E-005     1.3574275826639943E-004
   22.309199559743483          283.14999998186181          -6.1788735601003679E-005     2.0496902986089386E-004
   23.443054757101944          283.14999997316022          -8.8078853891409409E-005     3.0424205795448337E-004
   24.583713085644554          283.14999996090881          -1.2369997922535297E-004     4.4449992231228346E-004
   25.731215364158420          283.14999994389638          -1.7134767474906036E-004     6.3994907459120963E-004
   26.885602656343369          283.14999992057403          -2.3432617704675199E-004     9.0883889666780134E-004
   28.046916272281429          283.14999988898177          -3.1664796071531457E-004     1.2743732786138398E-003
   29.215197769915118          283.14999984666338          -4.2314335147050034E-004     1.7657754141701958E-003
   30.390488956534607          283.14999979056745          -5.5957920656514025E-004     2.4195214476607886E-003
   31.572831890273815          283.14999971693584          -7.3278782622779835E-004     3.2807605214883748E-003
   32.762268881615455          283.14999962117639          -9.5080562210281847E-004     4.4049388301411535E-003
   33.958842494905149          283.14999949771925          -1.2230206496990892E-003     5.8596448320679395E-003
   35.162595549874581          283.14999933985644          -1.5603296590947296E-003     7.7266941301739941E-003
   36.373571123173825          283.14999913956296          -1.9753036362254550E-003     1.0104471916772610E-002
   37.591812549912866          283.14999888729892          -2.4823617308420156E-003     1.3110551336915131E-002
   38.817363425212342          283.14999857179083          -3.0979521701904704E-003     1.6884605008697283E-002
   40.050267605763615          283.14999817979208          -3.8407403997217388E-003     2.1591627767374326E-002
   41.290569211398200          283.14999769582198          -4.7318030811020510E-003     2.7425487567610443E-002
   42.538312626666588          283.14999710188170          -5.7948271214924877E-003     3.4612820950772394E-002
   43.793542502426590          283.14999637714737          -7.0563129806088263E-003     4.3417289008399917E-002
   45.056303757441150          283.14999549763962          -8.5457810431325224E-003     5.4144208685443312E-002
   46.326641579985797          283.14999443586890          -1.0295980016729074E-002     6.7145573332972941E-002
   47.604601429465710          283.14999316045669          -1.2343096151234887E-002     8.2825475221191880E-002
   48.890229038042506          283.14999163573225          -1.4726962430802095E-002    0.10164594191255608     
   50.183570412270761          283.14998982130544          -1.7491266080144573E-002    0.12413319649415275     
   51.484671834744383          283.14998767161529          -2.0683753560798473E-002    0.15088435074867440     
   52.793579865752847          283.14998513545476          -2.4356431665028114E-002    0.18257453863442411     
   54.110341344947365          283.14998215547143          -2.8565763094052749E-002    0.21996449536011500     
   55.435003393017048          283.14997866764651          -3.3372856235819634E-002    0.26390858690213881     
   56.767613413375152          283.14997460075159          -3.8843647145006349E-002    0.31536329208373903     
   58.108219093855404          283.14996987578388          -4.5049072727547192E-002    0.37539613780830933     
   59.456868408418536          283.14996440538141          -5.2065233931233940E-002    0.44519508617205467     
   60.813609618869044          283.14995809321942          -5.9973548367409910E-002    0.52607837106968092     
   62.178491276582257          283.14995083338982          -6.8860890726257673E-002    0.61950477930632419     
   63.551562224241749          283.14994250976321          -7.8819719999105212E-002    0.72708436939919430     
   64.932871597587194          283.14993299533677          -8.9948193122121656E-002    0.85058962016964501     
   66.322468827172713          283.14992215156957         -0.10235026373951531         0.99196699883741646     
   67.720403640135743          283.14990982770610         -0.11613576573175753          1.1533489371540602     
   69.126726061976555          283.14989586009023         -0.13142047990689787          1.3370662011522221     
   70.541486418348413          283.14988007147241         -0.14832618468625949          1.5456606404226105     
   71.964735336858510          283.14986227031079         -0.16698068891540616          1.7818982993797892     
   73.396523748879659          283.14984225006896         -0.18751784729939269          2.0487828727499902     
   74.836902891372944          283.14981978851301         -0.21007755765490885          2.3495694854259939     
   76.285924308721178          283.14979464700860         -0.23480573985389808          2.6877787756492513     
   77.743639854573502          283.14976656982179         -0.26185429642914060          3.0672112593997301     
   79.210101693700949          283.14973528342489         -0.29138105465933134          3.4919619525434840     
   80.685362303863158          283.14970049580995         -0.32354969022474933          3.9664352263195837     
   82.169474477686336          283.14966189581185         -0.35852963241374131          4.4953598705955109     
   83.662491324552448          283.14961915244345         -0.39649595137842841          5.0838043389078393     
   85.164466272499766          283.14957191424503         -0.43762922758632133          5.7371921483752235     
   86.675453070134765          283.14951980864964         -0.48211540370272882          6.4613174067562280     
   88.195505788555579          283.14946244136746         -0.53014561956670481          7.2623604387455458     
   89.724678823286908          283.14939939578994         -0.58191603054771712          8.1469034828722489     
   91.263026896226634          283.14933023241701         -0.63762761033062298          9.1219464307900164     
   92.810605057603993          283.14925448830815         -0.69748593809351944          10.194922579558735     
   94.367468687949611          283.14917167655983         -0.76170097140531978          11.373714368405530     
   95.933673500077305          283.14908128581146         -0.83048680527228336          12.666669071015876     
   97.509275541077770          283.14898277978023         -0.90406141824151032          14.082614414724722     
   99.094331194324241          283.14887559682728         -0.98264640634500300          15.630874098143680     
   100.68889718149019          283.14875914955695          -1.0664667055122783          17.321283178715053     
   102.29303056457913          283.14863282444986          -1.1557503036923706          19.164203302639621     
   103.90678874796660          283.14849598153091          -1.2507279422270208          21.170537747928122     
   105.53022948045439          283.14834795407540          -1.3516328081852902          23.351746253072129     
   107.16341085733713          283.14818804835136          -1.4587002171754080          25.719859602123485     
   108.80639132248115          283.14801554340215          -1.5721672872508894          28.287493937005873     
   110.45922967041604          283.14782969086980          -1.6922726046185255          31.067864768092505     
   112.12198504843853          283.14762971485879          -1.8192558804503078          34.074800652006822     
   113.79471695872917          283.14741481184348          -1.9533575996656514          37.322756506051995     
   115.47748526048154          283.14718415061958          -2.0948186618803781          40.826826528051626     
   117.17035017204444          283.14693687230005          -2.2438800140464532          44.602756688624673     
   118.87337227307670          283.14667209035889          -2.4007822762994575          48.666956764474108     
   120.58661250671516          283.14638889072108          -2.5657653597276751          53.036511878153341     
   122.31013218175545          283.14608633190136          -2.7390680773746596          57.729193510986349     
   124.04399297484598          283.14576344519384          -2.9209277497667219          62.763469957080460     
   125.78825693269505          283.14541923491117          -3.1115798032977455          68.158516182590773     
   127.54298647429123          283.14505267867565          -3.3112573643200780          73.934223058336613     
   129.30824439313696          283.14466272776292          -3.5201908490697487          80.111205933255803     
   131.08409385949579          283.14424830749908          -3.7386075500231861          86.710812516390732     
   132.87059842265276          283.14380831771018          -3.9667312200903289          93.755130036777018     
   134.66782201318867          283.14334163322690          -4.2047816561593239          101.26699165258439     
   136.47582894526781          283.14284710444264          -4.4529742828073928          109.26998208169559     
   138.29468391893943          283.14232355792569          -4.7115197379195219          117.78844242848174     
   140.12445202245306          283.14176979708515          -4.9806234617334644          126.84747418384116     
   141.96519873458777          283.14118460288938          -5.2604852907196094          136.47294237780255     
   143.81698992699529          283.14056673463824          -5.5512990585061708          146.69147786782435     
   145.67989186655726          283.13991493078441          -5.8532522045079824          157.53047874707218     
   147.55397121775661          283.13922790980706          -6.1665253934923241          169.01811086296718     
   149.43929504506315          283.13850437113177          -6.4912921463780799          181.18330743709680     
   151.33593081533354          283.13774299609832          -6.8277184848749917          194.05576778277293     
   153.24394640022555          283.13694244897209          -7.1759625915954208          207.66595512011494     
   155.16341007862690          283.13610137799816          -7.5361744870800553          222.04509349192918     
   157.09439053909867          283.13521841649390          -7.9084957252711643          237.22516378737956     
   159.03695688233327          283.13429218397857          -8.2930591094740791          253.23889888531136     
   160.99117862362726          283.13332128733668          -8.6899884299357080          270.11977793240249     
   162.95712569536903          283.13230432200970          -9.0993982238598665          287.90201977416143     
   164.93486844954126          283.13123987321671          -9.5213935605687965          306.62057556346252     
   166.92447766023849          283.13012651719561          -9.9560698511703176          326.31112057164705     
   168.92602452619994          283.12896282246442          -10.403512684936562          347.01004523320250     
   170.93958067335714          283.12774735109758          -10.863797693014654          368.75444545809501     
   172.96521815739729          283.12647866001259          -11.336990439863062          391.58211224854369     
   175.00300946634167          283.12515530226347          -11.823146343433926          415.53152066109561     
   177.05302752313972          283.12377582833636          -12.322310624156991          440.64181815711578     
   179.11534568827855          283.12233878744354          -12.834518283429750          466.95281238845149     
   181.19003776240822          283.12084272881060          -13.359794111603799          494.50495846732690     
   183.27717798898269          283.11928620295254          -13.898152725305321          523.33934577156151     
   185.37684105691659          283.11766776293587          -14.449598634861768          553.49768434023679     
   187.48910210325809          283.11598596561947          -15.014126340215167          585.02229091408003     
   189.61403671587763          283.11423937287293          -15.591720456518134          617.95607467982916     
   191.75172093617289          283.11242655276595          -16.182355867947852          652.34252277735857     
   193.90223126178992          283.11054608072646          -16.785997909893855          688.22568563124798     
   196.06564464936065          283.10859654066104          -17.402602578332171          725.65016216856100     
   198.24203851725682          283.10657652603578          -18.032116765820025          764.66108498597487     
   200.43149074836035          283.10448464091331          -18.674478524138298          805.30410553206809     
   202.63407969285052          283.10231950094101          -19.329617351232482          847.62537936810179     
   204.84988417100763          283.10007973428844          -19.997454502911509          891.67155157415971     
   207.07898347603367          283.09776398252927          -20.677903327351466          937.48974236580477     
   209.32145737688987          283.09537090146574          -21.370869622319361          985.12753298871905     
   211.57738612115119          283.09289916189090          -22.076252013118047          1034.6329519568606     
   213.84685043787809          283.09034745028725          -22.793942350827113          1086.0544617011274     
   216.12993154050537          283.08771446945792          -23.523826129505199          1139.4409456949274     
   218.42671112974841          283.08499893908834          -24.265782921303039          1194.8416961230100     
   220.73727139652689          283.08219959623580          -25.019686828473048          1252.3064021598996     
   223.06169502490604          283.07931519574362          -25.785406950727474          1311.8851389229644     
   225.40006519505548          283.07634451058004          -26.562807867258378          1373.6283571657157     
   227.75246558622581          283.07328633209818          -27.351750129846746          1437.5868737707303     
   230.11898037974316          283.07013947021807          -28.152090759700492          1503.8118630861125     
   232.49969426202162          283.06690275353191          -28.963683738518370          1572.3548491280742     
   234.89469242759375          283.06357502933878          -29.786380482220856          1643.2676986449255     
   237.30406058215931          283.06015516361327          -30.620030284114478          1716.6026150051428     
   239.72788494565228          283.05664204091801          -31.464480714310231          1792.4121328381441     
   242.16625225532619          283.05303456427356          -32.319577965304369          1870.7491133282590     
   244.61924976885814          283.04933165499716          -33.185167132153715          1951.6667400293677     
   247.08696526747130          283.04553225252533          -34.061092420379637          2035.2185150447413     
   249.56948705907612          283.04163531423785          -34.947197277964563          2121.4582554006656     
   252.06690398143058          283.03763981529585          -35.843324447663754          2210.4400894255532     
   254.57930540531916          283.03354474851250          -36.749315942543319          2302.2184529454112     
   257.10678123775108          283.02934912426707          -37.665012946311620          2396.8480851025065     
   259.64942192517759          283.02505197047952          -38.590255645787281          2494.3840236146029     
   262.20731845672867          283.02065233265182          -39.524883002078973          2594.8815993014614     
   264.78056236746903          283.01614927398822          -40.468732469801715          2698.3964297222351     
   267.36924574167386          283.01154187560059          -41.421639675029866          2804.9844117888874     
   269.97346121612389          283.00682923680142          -42.383438061597886          2914.7017132405854     
   272.59330198342064          283.00201047548916          -43.353958518338516          3027.6047628927076     
   275.22886179532117          282.99708472862170          -44.333028996798447          3143.7502395962688     
   277.88023496609310          282.99205115277903          -45.320474130840381          3263.1950598717890     
   280.54751637588964          282.98690892480749          -46.316114867849052          3385.9963642067946     
   283.23080147414498          282.98165724254085          -47.319768120727908          3512.2115020310962     
   285.93018628298984          282.97629532558921          -48.331246448738952          3641.8980154071037     
   288.64576740068776          282.97082241618625          -49.350357774426072          3775.1136214944486     
   291.37764200509190          282.96523778008498          -50.376905142192570          3911.9161938666471     
   294.12590785712246          282.95954070748945          -51.410686524148311          4052.3637427769495     
   296.89066330426522          282.95373051401236          -52.451494676111857          4196.5143944832698     
