 #              _____________________  _______________________             #
 #              ___  __ \__  __ \_  / / /_  /___  ____/_  ___/             #
 #              __  / / /_  /_/ /  / / /_  __/_  __/  _____ \              #
 #              _  /_/ /_  _, _// /_/ / / /_ _  /___  ____/ /              #
 #              /_____/ /_/ |_| \____/  \__/ /_____/  /____/               #
 #                                                                         #
  
 #        time                      T            heat flux [W.L-2]   in    x              directions   cumulative flux
 #-----------------------------------------------------------------------------------------------

   0.0000000000000000          20.000000000000000          -0.0000000000000000          0.0000000000000000     
   1.0000000000000000          20.000000000000000          -3.3892888495756743E-012     0.0000000000000000     
   2.0060000000000002          19.999999999999993          -4.7450043894059484E-011     4.7450043894059484E-011
   3.0180360000000004          19.999999999999968          -2.8583002631421648E-010     3.3499505036616127E-010
   4.0361442160000003          19.999999999999847          -1.1986784897999515E-009     1.5481008344693450E-009
   5.0603610812960005          19.999999999999446          -4.0648870935913321E-009     5.6865957815670403E-009
   6.0907232477837763          19.999999999998266          -1.1806022826023948E-008     1.7778523472050310E-008
   7.1272675872704792          19.999999999995214          -3.0477615098347708E-008     4.9181504994164407E-008
   8.1700311927941023          19.999999999988020          -7.1648436517153664E-008     1.2344828629909240E-007
   9.2190513799508675          19.999999999972299          -1.5602591219056512E-007     2.8614642905003828E-007
   10.274365688230573          19.999999999940101          -3.1876487582994515E-007     6.2053721875217017E-007
   11.336011882359955          19.999999999877613          -6.1687881470195006E-007     1.2715382583817629E-006
   12.404027953654115          19.999999999761869          -1.1393749730544411E-006     2.4811513622112793E-006
   13.478452121376039          19.999999999556028          -2.0206488216570381E-006     4.6392367781826023E-006
   14.559322834104295          19.999999999202828          -3.4578134917059042E-006     8.3543951611463602E-006
   15.646678771108920          19.999999998615667          -5.7326375118224014E-006     1.4550635154362574E-005
   16.740558843735574          19.999999997666837          -9.2388353619521517E-006     2.4596537636189525E-005
   17.841002196797987          19.999999996172129          -1.4515424854391187E-005     4.0474671630117684E-005
   18.948048209978776          19.999999993871089          -2.2286890206984601E-005     6.5000131818825679E-005
   20.061736499238648          19.999999990402181          -3.3510925826013438E-005     1.0209826865251095E-004
   21.182106918234080          19.999999985271689          -4.9434409282925030E-005     1.5715279135738406E-004
   22.309199559743483          19.999999977815659          -7.1658377372888103E-005     2.3743671763917947E-004
   23.443054757101944          19.999999967153503          -1.0221255545030073E-004     3.5263973675708538E-004
   24.583713085644554          19.999999952132292          -1.4364008626654003E-004     5.1550679511941941E-004
   25.731215364158420          19.999999931260380          -1.9909292038432807E-004     7.4260379290967432E-004
   26.885602656343369          19.999999902629142          -2.7243832572466660E-004     1.0552273924332323E-003
   28.046916272281429          19.999999863821404          -3.6837683597208399E-004     1.4804769306147061E-003
   29.215197769915118          19.999999811805246          -4.9257187848171079E-004     2.0525073599237044E-003
   30.390488956534607          19.999999742811735          -6.5179123421176270E-004     2.8139829991731327E-003
   31.572831890273815          19.999999652195118          -8.5406029579618552E-004     3.8177525376640251E-003
   32.762268881615455          19.999999534274128          -1.1088270898748705E-003     5.1287664121161874E-003
   33.958842494905149          19.999999382152868          -1.4271387869032024E-003     6.8262580770372941E-003
   35.162595549874581          19.999999187519972          -1.8218293866442727E-003     9.0062110490115761E-003
   36.373571123173825          19.999998940424653          -2.3077181285914980E-003     1.1784133796311928E-002
   37.591812549912866          19.999998629028280          -2.9018180127601315E-003     1.5298164527924211E-002
   38.817363425212342          19.999998239330353          -3.6235537620652419E-003     1.9712527832888196E-002
   40.050267605763615          19.999997754867643          -4.4949884185520568E-003     2.5221364823705683E-002
   41.290569211398200          19.999997156385490          -5.5410576301838091E-003     3.2052957940634841E-002
   42.538312626666588          19.999996421480251          -6.7898106363249574E-003     4.0474370974823447E-002
   43.793542502426590          19.999995524212174          -8.2726568629125190E-003     5.0796524102297388E-002
   45.056303757441150          19.999994434687949          -1.0024616894844759E-002     6.3379722721754961E-002
   46.326641579985797          19.999993118612345          -1.2084576594264790E-002     7.8639657828248333E-002
   47.604601429465710          19.999991536808682          -1.4495543044185986E-002     9.7053894415601763E-002
   48.890229038042506          19.999989644707767          -1.7304900921234687E-002    0.11916886299216768     
   50.183570412270761          19.999987391805327          -2.0564667891142589E-002    0.14560736779423331     
   51.484671834744383          19.999984721087991          -2.4331747572068161E-002    0.17707662363646695     
   52.793579865752847          19.999981568428179          -2.8668178625541694E-002    0.21437683162588719     
   54.110341344947365          19.999977861948363          -3.3641378470462231E-002    0.25841030208007054     
   55.435003393017048          19.999973521355273          -3.9324380164185463E-002    0.31019113107347090     
   56.767613413375152          19.999968457245011          -4.5796061024147683E-002    0.37085543506324259     
   58.108219093855404          19.999962570380045          -5.3141361525091302E-002    0.44167214592705178     
   59.456868408418536          19.999955750939243          -6.1451493127874297E-002    0.52405436668827321     
   60.813609618869044          19.999947877742432          -7.0824133687969387E-002    0.61957128604108080     
   62.178491276582257          19.999938817450904          -8.1363609129070660E-002    0.72996064757747847     
   63.551562224241749          19.999928423745693          -9.3181060249146311E-002    0.85714176755780824     
   64.932871597587194          19.999916536485401         -0.10639459342801076          1.0032290927818535     
   66.322468827172713          19.999902980845661         -0.12112941423824386          1.1705462880569837     
   67.720403640135743          19.999887566442318         -0.13751794295904177          1.3616408406111682     
   69.126726061976555          19.999870086440641         -0.15569991113381729          1.5792991667603824     
   70.541486418348413          19.999850316652978         -0.17582243837676972          1.8265622041123586     
   71.964735336858510          19.999828014627283         -0.19804008875227011          2.1067414706514351     
   73.396523748879659          19.999802918729120         -0.22251490615822528          2.4234355701935035     
   74.836902891372944          19.999774747219863         -0.24941642823834079          2.7805471219128650     
   76.285924308721178          19.999743197333753         -0.27892167850408223          3.1823000900193605     
   77.743639854573502          19.999707944356519         -0.31121513633467596          3.6332574879712576     
   79.210101693700949          19.999668640708549         -0.34648868480814243          4.1383394302780143     
   80.685362303863158          19.999624915035259         -0.38494153626546462          4.7028415035064102     
   82.169474477686336          19.999576371307558         -0.42678013572232321          5.3324534269372332     
   83.662491324552448          19.999522587935306         -0.47221804228116504          6.0332779721856591     
   85.164466272499766          19.999463116896440         -0.52147578882395162          6.8118501101326174     
   86.675453070134765          19.999397482884625         -0.57478072037203121          7.6751563526945192     
   88.195505788555579          19.999325182478174         -0.63236681157855856          8.6306542562522601     
   89.724678823286908          19.999245683332809         -0.69447446389559153          9.6862920529705878     
   91.263026896226634          19.999158423400985         -0.76135028307988162          10.850528375841410     
   92.810605057603993          19.999062810180153         -0.83324683771367047          12.132352042921351     
   94.367468687949611          19.998958219992566         -0.91042239959516646          13.541301866163602     
   95.933673500077305          19.998843997298753         -0.99314066678204771          15.087486450093774     
   97.509275541077770          19.998719454047023          -1.0816704702587301          16.781603945749428     
   99.094331194324241          19.998583869061004          -1.1762854651595658          18.634961725454019     
   100.68889718149019          19.998436487467259          -1.2772638076053835          20.659495944386038     
   102.29303056457913          19.998276520164715          -1.3848878181631672          22.867790955269481     
   103.90678874796660          19.998103143337683          -1.4994436330786023          25.273098543151033     
   105.53022948045439          19.997915498013995          -1.6212208443485818          27.889356947796909     
   107.16341085733713          19.997712689669648          -1.7505121298192328          30.731209642059422     
   108.80639132248115          19.997493787881194          -1.8876128744576026          33.814023835387651     
   110.45922967041604          19.997257826027038          -2.0328207839630466          37.153908672577693     
   112.12198504843853          19.997003801038499          -2.1864354918887723          40.767733098857335     
   113.79471695872917          19.996730673201483          -2.3487581614687039          44.673143363513653     
   115.47748526048154          19.996437366009410          -2.5200910833108172          48.888580135406542     
   117.17035017204444          19.996122766067774          -2.7007372700976782          53.433295204888154     
   118.87337227307670          19.995785723050812          -2.8910000494517383          58.327367747931582     
   120.58661250671516          19.995425049710292          -3.0911826560720606          63.591720129549927     
   122.31013218175545          19.995039521936580          -3.3015878242773162          69.248133224992685     
   124.04399297484598          19.994627878871743          -3.5225173819452333          75.319261238446714     
   125.78825693269505          19.994188823074509          -3.7542718469629479          81.828646000499347     
   127.54298647429123          19.993721020736672          -3.9971500271445248          88.800730726962996     
   129.30824439313696          19.993223101950321          -4.2514486245843406          96.260873223099551     
   131.08409385949579          19.992693661025328          -4.5174618453563529          104.23535851869838     
   132.87059842265276          19.992131256856265          -4.7954810154726557          112.75141092095936     
   134.66782201318867          19.991534413337835          -5.0857942038883239          121.83720547348314     
   136.47582894526781          19.990901619827834          -5.3886858533678552          131.52187881114301     
   138.29468391893943          19.990231331656513          -5.7044364199529234          141.83553940202256     
   140.12445202245306          19.989521970681100          -6.0333220216922294          152.80927716893990     
   141.96519873458777          19.988771925884222          -6.3756140973181399          164.47517248452451     
   143.81698992699529          19.987979554014800          -6.7315790754113749          176.86630453506285     
   145.67989186655726          19.987143180269953          -7.1014780546360452          190.01675904971322     
   147.55397121775661          19.986261099016478          -7.4855664955369674          203.96163539296916     
   149.43929504506315          19.985331574550067          -7.8840939242774581          218.73705301937375     
   151.33593081533354          19.984352841890889          -8.2973036487919511          234.38015729083870     
   153.24394640022555          19.983323107613636          -8.7254324876586420          250.92912465801135     
   155.16341007862690          19.982240550710358          -9.1687105119681664          268.42316720820975     
   157.09439053909867          19.981103323484319          -9.6273608004771258          286.90253658359057     
   159.03695688233327          19.979909552473032          -10.101599208231454          306.40852727420253     
   160.99117862362726          19.978657339398612          -10.591634148807778          326.98347929153067     
   162.95712569536903          19.977344762143712          -11.097666390324440          348.67078022913040     
   164.93486844954126          19.975969875750994          -11.619888865246633          371.51486671772676     
   166.92447766023849          19.974530713444448          -12.158486494076900          395.56122528308811     
   168.92602452619994          19.973025287670580          -12.713636022887087          420.85639261567655     
   170.93958067335714          19.971451591157649          -13.285505874684162          447.44795526186283     
   172.96521815739729          19.969807597991068          -13.874256014506726          475.38454874710561     
   175.00300946634167          19.968091264703194          -14.480037828192041          504.71585614221061     
   177.05302752313972          19.966300531375595          -15.102994014618343          535.49260608423890     
   179.11534568827855          19.964433322752100          -15.743258491326658          567.76657026429780     
   181.19003776240822          19.962487549360780          -16.400956313268640          601.59056039480026     
   183.27717798898269          19.960461108643202          -17.076203604519701          637.01842466932180     
   185.37684105691659          19.958351886089179          -17.769107502678317          674.10504372848754     
   187.48910210325809          19.956157756375397          -18.479766115704379          712.90632614568824     
   189.61403671587763          19.953876584506293          -19.208268490933701          753.47920344675629     
   191.75172093617289          19.951506226955598          -19.954694595951810          795.88162467794655     
   193.90223126178992          19.949044532806990          -20.719115311019429          840.17255053679082     
   196.06564464936065          19.946489344892427          -21.501592432734228          886.41194708059493     
   198.24203851725682          19.943838500926631          -22.302178688572916          934.66077902744837     
   200.43149074836035          19.941089834636450          -23.120917761980518          984.98100266475421     
   202.63407969285052          19.938241176883629          -23.957844327636419          1037.4355583803290     
   204.84988417100763          19.935290356779820          -24.812984096530403          1092.0883628311572     
   207.07898347603367          19.932235202792551          -25.686353870488428          1149.0043007649135     
   209.32145737688987          19.929073543840989          -26.577961605762464          1208.2492165093277     
   211.57738612115119          19.925803210380348          -27.487806485288004          1269.8899051443718     
   213.84685043787809          19.922422035473932          -28.415878999254108          1333.9941033722412     
   216.12993154050537          19.918927855851777          -29.362161033577181          1400.6304800999337     
   218.42671112974841          19.915318512954897          -30.326625965906366          1469.8686267491400     
   220.73727139652689          19.911591853964318          -31.309238768764157          1541.7790473079742     
   223.06169502490604          19.907745732813989          -32.309956119453375          1616.4331481389397     
   225.40006519505548          19.903778011186802          -33.328726516346357          1693.9032275573222     
   227.75246558622581          19.899686559493006          -34.365490401171613          1774.2624651939786     
   230.11898037974316          19.895469257830261          -35.420180286924811          1857.5849111562643     
   232.49969426202162          19.891123996924826          -36.492720891068835          1943.9454750006785     
   234.89469242759375          19.886648679053135          -37.583029273610009          2033.4199145304394     
   237.30406058215931          19.882041218943385          -38.691014979726120          2126.0848244310073     
   239.72788494565228          19.877299544656569          -39.816580186602174          2222.0176247563127     
   242.16625225532619          19.872421598446522          -40.959619854121762          2321.2965492781427     
   244.61924976885814          19.867405337598647          -42.120021879067352          2424.0006337108107     
   247.08696526747130          19.862248735246915          -43.297667252534971          2530.2097038230131     
   249.56948705907612          19.856949781168876          -44.492430220206806          2640.0043634483814     
   252.06690398143058          19.851506482558424          -45.704178445214758          2753.4659824060227     
   254.57930540531916          19.845916864776122          -46.932773173270469          2870.6766843419718     
   257.10678123775108          19.840178972076846          -48.178069399760830          2991.7193345021337     
   259.64942192517759          19.834290868314699          -49.439916038562210          3116.6775274470629     
   262.20731845672867          19.828250637625011          -50.718156092267648          3245.6355747185112     
   264.78056236746903          19.822056385083467          -52.012626823598708          3378.6784924674544     
   267.36924574167386          19.815706237342198          -53.323159927695698          3515.8919890528323     
   269.97346121612389          19.809198343242997          -54.649581705129947          3657.3624526201497     
   272.59330198342064          19.802530874407527          -55.991713235307401          3803.1769386685064     
   275.22886179532117          19.795702025804729          -57.349370550121542          3953.4231576145221     
   277.88023496609310          19.788710016295422          -58.722364807591184          4108.1894623611706     
   280.54751637588964          19.781553089154254          -60.110502465298211          4267.5648358792823     
   283.23080147414498          19.774229512569153          -61.513585453442523          4431.6388788091817     
   285.93018628298984          19.766737580118448          -62.931411347309961          4600.5017970895951     
   288.64576740068776          19.759075611225761          -64.363773538971472          4774.2443896206260     
   291.37764200509190          19.751241951593048          -65.810461408094724          4952.9580359674374     
   294.12590785712246          19.743234973611838          -67.271260491635857          5136.7346841107919     
   296.89066330426522          19.735053076753037          -68.745952652336555          5325.6668382505177     
