 #              _____________________  _______________________             #
 #              ___  __ \__  __ \_  / / /_  /___  ____/_  ___/             #
 #              __  / / /_  /_/ /  / / /_  __/_  __/  _____ \              #
 #              _  /_/ /_  _, _// /_/ / / /_ _  /___  ____/ /              #
 #              /_____/ /_/ |_| \____/  \__/ /_____/  /____/               #
 #                                                                         #
  
 #        time                      T            heat flux [W.L-2]   in    x              directions   cumulative flux
 #-----------------------------------------------------------------------------------------------

   0.0000000000000000        20.000000000000000       -0.0000000000000000        0.0000000000000000     
   1.0000000000000000        19.141262195154333       -266.68593739613590        266.68593739613590     
   1.9540000000000002        18.391511449868652       -494.77124303932766        761.45718043546356     
   2.8641160000000001        17.733482007424318       -689.93150084444414        1451.3886812799078     
   3.8288389600000006        17.091865483736999       -874.30505614864740        2325.6937374285553     
   4.8514452976000007        16.468038092888253       -1046.9490721627872        3372.6428095913425     
   5.9354080154560007        15.863065515647127       -1207.1878212087711        4579.8306308001138     
   7.0844084963833609        15.277702278464890       -1354.5960736283655        5934.4267044284788     
   8.3023490061663630        14.712399502662695       -1488.9791997709499        7423.4059041994287     
   9.5933659465363448        14.167320221580756       -1610.3506386625229        9033.7565428619509     
   10.961843903328527        13.642361177808754       -1718.9073794504548        10752.663922312406     
   12.412430537528239        13.137179808085898       -1815.0041105940838        12567.668032906489     
   13.950052369779934        12.651225007637576       -1899.1267083503567        14466.794741256846     
   15.579931511966731        12.183770238652761       -1971.8657480693239        16438.660489326172     
   17.307603402684734        11.733947602421434       -2033.8907161613281        18472.551205487500     
   19.138935606845820        11.300781618733659       -2085.9255665772125        20558.476772064714     
   21.080147743256571        10.883221632760321       -2128.7261971717530        22687.202969236467     
   23.137832607851966        10.480171979789235       -2163.0603183942476        24850.263287630714     
   25.318978564323086        10.090519262526323       -2189.6900555868174        27039.953343217530     
   27.630993278182473        9.7131563163066073       -2209.3574780685649        29249.310821286097     
   30.081728874873424        9.3470026396350896       -2222.7730973647504        31472.083918650846     
   32.679508607365833        8.9910212402964582       -2230.6072378824815        33702.691156533328     
   35.433155123807786        8.6442319848899718       -2233.4840681998471        35936.175224733175     
   38.352020431236255        8.3057216408441104       -2231.9779978510469        38168.153222584224     
   41.446017657110431        7.9746508676250620       -2226.6120958479446        40394.765318432168     
   44.725654716537058        7.6502584538223051       -2217.8581710425105        42612.623489474681     
   48.202069999529286        7.3318631164493802       -2206.4483862239013        44819.071875698581     
   51.887070199501046        7.0188631855391641       -2193.7157572795131        47012.787632978092     
   55.793170411471110        6.7107344970628127       -2178.3849479864830        49191.172580964572     
   59.933636636159378        6.4071820789200107       -2160.7178718537220        51351.890452818297     
   64.322530834328944        6.1077660453880167       -2141.0374156320490        53492.927868450344     
   68.974758684388689        5.8120996655259622       -2119.6355868689716        55612.563455319316     
   73.906120205452012        5.5198803350231671       -2096.7590737760088        57709.322529095327     
   79.133363417779137        5.2308755082222884       -2072.6160024101973        59781.938531505526     
   84.674241222845893        4.9449105203359451       -2047.3820565272108        61829.320588032737     
   90.547571696216650        4.6618578263019934       -2021.2060728564461        63850.526660889183     
   96.773301997989648        4.3816277563969450       -1994.2149779381898        65844.741638827370     
   103.37257611786903        4.1041607730838692       -1966.5180093269776        67811.259648154344     
   110.36780668494117        3.8294211286610293       -1938.2102250709236        69749.469873225273     
   117.78275108603765        3.5573917685184275       -1909.3753493576539        71658.845222582924     
   125.64259215119992        3.2880702969504521       -1880.0880297115614        73538.933252294490     
   133.97402368027193        3.0214658165177970       -1850.4155943312408        75389.348846625726     
   142.80534110108826        2.7575964620994129       -1820.4194001504741        77209.768246776206     
   152.16653756715357        2.4964874712464011       -1790.1558563493013        78999.924103125508     
   162.08940582118279        2.2381696581202215       -1759.6771974900805        80759.601300615584     
   172.60764617045376        1.9826781850919168       -1729.0320678452699        82488.633368460854     
   183.75698094068099        1.7300515511293788       -1698.2659657811034        84186.899334241956     
   195.57527579712186        1.4803307377056203       -1667.4215855334476        85854.320919775404     
   208.10266834494917        1.2335584704070777       -1636.5390840178191        87490.860003793219     
   221.38170444564611       0.98977856772014228       -1605.6562926446752        89096.516296437898     
   235.45748271238489       0.74903535809694421       -1574.8088883410401        90671.325184778936     
   250.37780767512800       0.51137315303773390       -1544.0305338192252        92215.355718598163     
   266.19335213563568       0.27683576830694756       -1513.3529942333182        93728.708712831474     
   282.95782926377382        4.5466088178993225E-002  -1482.8062353900530        95211.514948221520     
   300.72817501960026      -0.18269433068376495       -2265.8588079708588        97477.373756192377     
   319.56474152077629      -0.40760561809597240       -3262.1400542325341        100739.51381042491     
   339.53150201202288      -0.62927678207868043       -1906.1035014586175        102645.61731188353     
   343.71883518179675      -0.58452135508327563       -1467.7204298143995        104113.33774169793     
   344.42135311232937      -0.57769126169061213       -1470.0516603424014        105583.38940204034     
   345.16602211869395      -0.58691399200436334       -1459.7541572194687        107043.14355925981     
   345.95537126544036      -0.57971652921258598       -1461.0805643486340        108504.22412360845     
   346.79208136099157      -0.57267957719973361       -1464.0422973319694        109968.26642094042     
   347.67899406227588      -0.58550247994636928       -1449.3848181451867        111417.65123908561     
   348.61912152563724      -0.57758503969333019       -1450.7583630406648        112868.40960212627     
   349.61565663680028      -0.56996687613312336       -1454.0315476590467        114322.44114978531     
   350.67198385463308      -0.56272931775689061       -1459.4812423627270        115781.92239214804     
   351.79169070553587      -0.58262166589468978       -1433.2455320542733        117215.16792420232     
   352.97857996749281      -0.57387855895054862       -1434.4732426515086        118649.64116685383     
   354.23668258516716      -0.56571200379453890       -1437.8543279352104        120087.49549478905     
   355.57027135990199      -0.55819931100192932       -1443.6675351358074        121531.16302992486     
   356.98387546112093      -0.55142515699193895       -1451.4914289543326        122982.65445887920     
   358.48229580841297      -0.54546224221550454       -1460.7097828779770        124443.36424175718     
   360.07062137654259      -0.54036231182539429       -1470.2913331247503        125913.65557488194     
   361.75424647875997      -0.53615294507841682       -1478.8856483137083        127392.54122319564     
   363.53888908711036      -0.53283581000870717       -1485.0350516631854        128877.57627485883     
   365.43061025196181      -0.53038657330771632       -1487.4564462843318        130365.03272114316     
   367.43583468670431      -0.52875646414082977       -1485.3049216396860        131850.33764278283     
   369.56137258753137      -0.52787530302200836       -1478.3282405312252        133328.66588331407     
   371.81444276240808      -0.52765565470672005       -1466.8647514584572        134795.53063477253     
   374.20269714777737      -0.52679537324684123       -1458.3733589466754        136253.90399371920     
   376.73424679626885      -0.52640540539535474       -1446.5075411110952        137700.41153483029     
   379.41768942366980      -0.52638622589358286       -1431.9611355901143        139132.37267042039     
   382.26213860871479      -0.52663935305458365       -1415.4938819100621        140547.86655233044     
   385.27725474486249      -0.52707036763360005       -1397.8167681482764        141945.68332047871     
   388.47327784917906      -0.52759126480681562       -1379.5214072690794        143325.20472774780     
   391.86106233975460      -0.52812216041817828       -1361.0511474863583        144686.25587523414     
   395.45211389976470      -0.52859242424317487       -1342.7028683815624        146028.95874361572     
   399.25862855337539      -0.52894134544008276       -1324.6465723943033        147353.60531601001     
   403.29353408620273      -0.52911845055934237       -1306.9521145082194        148660.55743051824     
   407.57053395099973      -0.52908359576210340       -1289.6160155843204        149950.17344610256     
   412.10415380768455      -0.52880694594665978       -1272.5846199973828        151222.75806609995     
   416.90979085577044      -0.52826893772202732       -1255.7722431179880        152478.53030921795     
   422.00376612674148      -0.52746030346651307       -1239.0743929282689        153717.60470214623     
   427.40337991397081      -0.52638221234022875       -1222.3768901846306        154939.98159233085     
   433.12697052843384      -0.52512947626980777       -1204.5520149873369        156144.53360731818     
   438.85056114289688      -0.52366334006973481       -1187.8124224464386        157332.34602976462     
   444.57415175735991      -0.52202086366774503       -1171.9217024552606        158504.26773221989     
   450.29774237182295      -0.52025095332938831       -1156.6781777694487        159660.94590998933     
   456.02133298628598      -0.51840564351474905       -1141.9210604354432        160802.86697042477     
   461.74492360074902      -0.51653552306243977       -1127.5288092915389        161930.39577971632     
   467.46851421521205      -0.51468749935668257       -1113.4155686797553        163043.81134839606     
   473.19210482967509      -0.51290387684442318       -1099.5278590704420        164143.33920746652     
   478.91569544413812      -0.51122216887732230       -1085.8420544315497        165229.18126189808     
   484.63928605860116      -0.50967531267060306       -1072.3625009530110        166301.54376285110     
   490.36287667306419      -0.50829209996587477       -1059.1198866243592        167360.66364947546     
   496.08646728752723      -0.50709771785951607       -1046.1694296539640        168406.83307912943     
   501.81005790199026      -0.50683653599774359       -1033.1198450277923        169439.95292415723     
   507.87706395332111      -0.50590487484434521       -1021.0497815773115        170461.00270573454     
   513.94407000465196      -0.50524435962488234       -1009.3348867619313        171470.33759249648     
   520.01107605598281      -0.50489949163406767       -998.17396037292042        172468.51155286940     
   526.07808210731366      -0.50566401207098488       -987.35227444458565        173455.86382731399     
   532.50910852172433      -0.50598396885464758       -978.47108068403418        174434.33490799804     
   538.94013493613500      -0.50748909802554587       -970.07750213134841        175404.41241012939     
   545.75702293541030      -0.50869095966412137       -964.16085152166465        176368.57326165104     
   552.57391093468561      -0.51115742885564464       -958.81594983658943        177327.38921148764     
   559.79981221391745      -0.51438010864384509       -955.84958880522277        178283.23880029286     
   567.45926756990320      -0.51850128267702056       -955.27720680951631        179238.51600710239     
   575.57829024724811      -0.52373875095427203       -956.85066995848604        180195.36667706087     
   584.18445428523376      -0.53041212837253449       -959.88758624170430        181155.25426330257     
   593.30698816549852      -0.53898117042993865       -962.97581077501286        182118.23007407758     
   602.97687407857916      -0.55009904973927726       -963.56652724699700        183081.79660132458     
   613.22695314644466      -0.56565905574230457       -986.82327565507092        184068.61987697965     
   623.47703221431016      -0.58620394674253318       -901.80242422039851        184970.42230120004     
   633.72711128217566      -0.63870132683036906       -785.38118414061694        185755.80348534067     
   642.95218244325463      -0.72090749985759595       -760.66732946587149        186516.47081480655     
   652.17725360433360      -0.84288301698615697       -808.95428569675278        187325.42510050331     
   661.95582903507727      -0.88934095843758942       -823.26180998997495        188148.68691049330     
   672.32111899166557      -0.94440975404067695       -843.79035474772706        188992.47726524103     
   683.30832634564911       -1.0120753200314769       -870.35921737244030        189862.83648261346     
   694.95476614087170       -1.1001348321824671       -903.60281269374320        190766.43929530721     
   707.29999232380760       -1.2247708465631071       -945.67764028315571        191712.11693559037     
   715.67499376631133       -1.3421766791822201       -981.67137424532950        192693.78830983571     
   724.55249529536536       -1.3616218764403776       -1032.6312524702823        193726.41956230599     
   733.42999682441939       -1.3753742972619469       -1086.0796866342562        194812.49924894024     
   742.30749835347342       -1.3797987332879951       -1148.6702101323667        195961.16945907261     
   751.18499988252745       -1.3765711098800677       -1225.1639277553472        197186.33338682796     
   760.06250141158148       -1.3678362500603571       -1319.9027932048998        198506.23618003287     
   768.94000294063551       -1.3553668005129005       -1436.3986860834907        199942.63486611636     
   777.81750446968954       -1.3404393719076584       -1576.5219675663968        201519.15683368276     
   786.69500599874357       -1.3238995226733989       -1739.2080868909040        203258.36492057366     
   795.57250752779760       -1.3062829006180430       -1918.6679040983172        205177.03282467197     
   804.45000905685163       -1.2879162095735868       -2102.6175396363556        207279.65036430833     
   813.32751058590566       -1.2689878964974541       -2271.5235911793388        209551.17395548767     
   822.20501211495969       -1.2495920260808553       -2400.1248723015719        211951.29882778923     
   831.08251364401372       -1.2297482701686397       -2462.1421358677485        214413.44096365699     
   839.96001517306775       -1.2093991391238552       -2438.8126143760469        216852.25357803304     
   848.83751670212177       -1.1884059514073555       -2349.7536170634180        219202.00719509646     
   857.71501823117580       -1.1661722130671761       -2257.5709982992203        221459.57819339569     
   866.59251976022983       -1.1468730052722906       -2176.2703257163007        223635.84851911198     
   875.47002128928386       -1.1305266591510763       -2104.9648051261534        225740.81332423814     
   884.34752281833789       -1.1162989377629198       -2041.1962526295563        227782.00957686771     
   893.22502434739192       -1.1036604941642225       -1983.3357314857496        229765.34530835346     
   902.10252587644595       -1.0922570487417917       -1930.2490202314589        231695.59432858491     
   910.98002740549998       -1.0818393653274332       -1881.1094031534597        233576.70373173838     
   919.85752893455401       -1.0722225530396483       -1835.2853120101088        235411.98904374850     
   928.73503046360804       -1.0721940492626867       -1815.3314727783259        237227.32051652682     
   938.14518208440529       -1.0836394792433148       -1822.2427699847267        239049.56328651155     
   947.55533370520254       -1.1072497107504080       -1854.1195121225435        240903.68279863408     
   956.96548532599979       -1.1469700470482582       -1912.5949607001953        242816.27775933428     
   966.37563694679704       -1.2104851901051823       -2000.4604475749443        244816.73820690921     
   972.39813398410729       -1.2664245934478209       -2071.1134698074443        246887.85167671664     
   978.78198084365613       -1.2726764905802022       -2067.6004603187530        248955.45213703541     
   985.16582770320497       -1.2817453210140852       -2069.5439693763788        251024.99610641180     
   991.54967456275381       -1.2939618111071869       -2077.2754359933815        253102.27154240519     
   997.93352142230265       -1.3096890131452958       -2091.1403843815838        255193.41192678676     
   1004.3173682818515       -1.3283835821756040       -2109.9768494499513        257303.38877623671     
   1010.7012151414003       -1.3489917626143124       -2131.9006424640716        259435.28941870079     
   1017.0850620009492       -1.3711512811000683       -2155.3727939425357        261590.66221264334     
   1023.8519396720709       -1.3972454985168081       -2153.2392184410978        263743.90143108444     
   1031.0248300034600       -1.4285460923443525       -2098.3697180883473        265842.27114917280     
   1038.6280937547324       -1.4609874201930044       -2033.4315003443639        267875.70264951716     
   1046.2313575060048       -1.4956402210759163       -1962.2177418295480        269837.92039134674     
   1054.2908170823534       -1.5352014148715061       -1893.2294093349090        271731.14980068163     
   1062.8338442332831       -1.5798704609459113       -1837.3766239693839        273568.52642465103     
   1071.8894530132686       -1.6275648823520181       -1799.2807601988191        275367.80718484987     
   1081.4883983200532       -1.6748898466622686       -1786.5387977289070        277154.34598257876     
   1091.0873436268378       -1.7151707994435799       -1799.7465291853398        278954.09251176409     
   1100.6862889336223       -1.7454094997264065       -1834.9353658436398        280789.02787760773     
   1110.2852342404069       -1.7646828561625179       -1886.3639833160653        282675.39186092379     
   1119.8841795471915       -1.7742017609541625       -1947.1203869402093        284622.51224786398     
   1129.4831248539761       -1.7763668846043381       -2009.8192643309844        286632.33151219494     
   1139.0820701607606       -1.7736768698797267       -2067.7766551983491        288700.10816739331     
   1149.2569521859523       -1.7681151981863628       -2115.4708105517607        290815.57897794509     
