 #              _____________________  _______________________             #
 #              ___  __ \__  __ \_  / / /_  /___  ____/_  ___/             #
 #              __  / / /_  /_/ /  / / /_  __/_  __/  _____ \              #
 #              _  /_/ /_  _, _// /_/ / / /_ _  /___  ____/ /              #
 #              /_____/ /_/ |_| \____/  \__/ /_____/  /____/               #
 #                                                                         #
  
 #        time                      T            heat flux [W.L-2]   in    x              directions   cumulative flux
 #-----------------------------------------------------------------------------------------------

   0.0000000000000000        20.000000000000000       -0.0000000000000000        0.0000000000000000     
   1.0000000000000000        20.000000000000004       -5.6488147492928013E-012   5.6488147492928013E-012
   1.9540000000000002        19.999999999999996       -4.7450043894060221E-011   5.3098858643353024E-011
   2.8641160000000001        19.999999999999975       -2.2143353817229432E-010   2.7453239681564733E-010
   3.8288389600000006        19.999999999999886       -9.3092467068374723E-010   1.2054570674993946E-009
   4.8514452976000007        19.999999999999538       -3.5000056186659270E-009   4.7054626861653216E-009
   5.9354080154560007        19.999999999998288       -1.1900922913857013E-008   1.6606385600022334E-008
   7.0844084963833609        19.999999999994166       -3.7110453377404346E-008   5.3716838977426680E-008
   8.3023490061663630        19.999999999981583       -1.0739865530612125E-007   1.6111549428354795E-007
   9.5933659465363448        19.999999999945576       -2.9126079684109848E-007   4.5237629112464643E-007
   10.961843903328527        19.999999999848260       -7.4633722153165333E-007   1.1987135126562997E-006
   12.412430537528239        19.999999999598135       -1.8192346839127606E-006   3.0179481965690603E-006
   13.950052369779934        19.999999998983398       -4.2418463888926261E-006   7.2597945854616868E-006
   15.579931511966731        19.999999997532012       -9.5044065044901143E-006   1.6764201089951803E-005
   17.307603402684734        19.999999994227707       -2.0542497915384580E-005   3.7306699005336386E-005
   19.138935606845820        19.999999986950669       -4.2965632278051692E-005   8.0272331283388085E-005
   21.080147743256571        19.999999971406901       -8.7194524741000874E-005   1.6746685602438897E-004
   23.137832607851966        19.999999939132536       -1.7208260717592875E-004   3.3954946320031770E-004
   25.318978564323086        19.999999873867512       -3.3089934157485814E-004   6.7044880477517589E-004
   27.630993278182473        19.999999745124462       -6.2097597818378794E-004   1.2914247829589639E-003
   30.081728874873424        19.999999497048812       -1.1388867300498218E-003   2.4303115130087857E-003
   32.679508607365833        19.999999029558516       -2.0437831177133408E-003   4.4740946307221269E-003
   35.433155123807786        19.999998167119468       -3.5924267563764455E-003   8.0665213870985721E-003
   38.352020431236255        19.999996608175888       -6.1905628555075209E-003   1.4257084242606093E-002
   41.446017657110431        19.999993845012977       -1.0466492422089968E-002   2.4723576664696059E-002
   44.725654716537058        19.999989039477903       -1.7373933308123191E-002   4.2097509972819247E-002
   48.202069999529286        19.999980834353053       -2.8332341978394078E-002   7.0429851951213318E-002
   51.887070199501046        19.999967073173831       -4.5413560449351777E-002  0.11584341240056509     
   55.793170411471110        19.999944392976346       -7.1583650257868212E-002  0.18742706265843329     
   59.933636636159378        19.999907645143168      -0.11100772270237166       0.29843478536080492     
   64.322530834328944        19.999849089801387      -0.16942310988537060       0.46785789524617549     
   68.974758684388689        19.999757300112417      -0.25458203418361663       0.72243992942979207     
   73.906120205452012        19.999615705690502      -0.37675884651190589        1.0991987759416979     
   79.133363417779137        19.999400701095048      -0.54930895759001508        1.6485077335317131     
   84.674241222845893        19.999079247921870      -0.78925712151809724        2.4377648550498101     
   90.547571696216650        19.998605909576902       -1.1178824402086702        3.5556472952584803     
   96.773301997989648        19.997919278178077       -1.5612573873912263        5.1169046826497064     
   103.37257611786903        19.996937784347885       -2.1506896391945625        7.2675943218442693     
   110.36780668494117        19.995554922992007       -2.9230100322829995        10.190604354127268     
   117.78275108603765        19.993633980124102       -3.9206489810490530        14.111253335176322     
   125.64259215119992        19.991002404360465       -5.1914482982184573        19.302701633394779     
   133.97402368027193        19.987446027221665       -6.7881661504136526        26.090867783808431     
   142.80534110108826        19.982703392899072       -8.7676496626136800        34.858517446422113     
   152.16653756715357        19.976460504058036       -11.189671437580499        46.048188884002613     
   162.08940582118279        19.968346319124027       -14.115451149621599        60.163640033624212     
   172.60764617045376        19.957929343044889       -17.605908966435820        77.769549000060039     
   183.75698094068099        19.944715634493907       -21.719721117228062        99.489270117288100     
   195.57527579712186        19.928148507319939       -26.511266831538929        126.00053694882703     
   208.10266834494917        19.907610135154922       -32.028567992162628        158.02910494098967     
   221.38170444564611        19.882425180584686       -38.311326862826164        196.34043180381582     
   235.45748271238489        19.851866471389272       -45.389162847357447        241.72959465117327     
   250.37780767512800        19.815162644384039       -53.280137089202732        295.00973174037603     
   266.19335213563568        19.771507580665844       -61.989635348799162        356.99936708917517     
   282.95782926377382        19.720071371880010       -71.509657084228110        428.50902417340330     
   300.72817501960026        19.660012490949228       -81.818534320855377        510.32755849425871     
   319.56474152077629        19.590490795777708       -92.881079948290036        603.20863844254870     
   339.53150201202288        19.510680477676438       -104.64923960250005        707.85787804504878     
   343.71883518179675        19.493678491692158       -107.11751792540529        814.97539597045409     
   344.42135311232937        19.490818612691776       -107.53162463805674        922.50702060851086     
   345.16602211869395        19.487778789410189       -107.97059693138173        1030.4776175398927     
   345.95537126544036        19.484547258084003       -108.43591868903806        1138.9135362289308     
   346.79208136099157        19.481111399546357       -108.92916473383424        1247.8427009627651     
   347.67899406227588        19.477457706265717       -109.45200225907979        1357.2947032218449     
   348.61912152563724        19.473571714148058       -110.00619586960948        1467.3008990914543     
   349.61565663680028        19.469437928662771       -110.59361282304410        1577.8945119144985     
   350.67198385463308        19.465039744805299       -111.21622846451515        1689.1107403790136     
   351.79169070553587        19.460359360371722       -111.87613184449296        1800.9868722235065     
   352.97857996749281        19.455377752638583       -112.57552617471532        1913.5623983982218     
   354.23668258516716        19.450074373037186       -113.31675123598446        2026.8791496342062     
   355.57027135990199        19.444427142865472       -114.10227861833322        2140.9814282525394     
   356.98387546112093        19.438412529719280       -114.93470492846663        2255.9161331810060     
   358.48229580841297        19.432005168585153       -115.81677712869090        2371.7329103096968     
   360.07062137654259        19.425177801937004       -116.75139225437461        2488.4843025640712     
   361.75424647875997        19.417901128061029       -117.74160358728622        2606.2259061513573     
   363.53888908711036        19.410143637016240       -118.79062671729064        2725.0165328686480     
   365.43061025196181        19.401871433347317       -119.90184541519874        2844.9183782838468     
   367.43583468670431        19.393048044639766       -121.07881722584278        2965.9971955096894     
   369.56137258753137        19.383634214989179       -122.32527867420860        3088.3224741838981     
   371.81444276240808        19.373587682449493       -123.64514995722254        3211.9676241411207     
   374.20269714777737        19.362863234594116       -125.04254128782374        3337.0101654289447     
   376.73424679626885        19.351411593113077       -126.52175953549451        3463.5319249644390     
   379.41768942366980        19.339179968873854       -128.08729909771560        3591.6192240621544     
   382.26213860871479        19.326111497625238       -129.74384845431098        3721.3630725164653     
   385.27725474486249        19.312144924307105       -131.49628916988584        3852.8593616863513     
   388.47327784917906        19.297214266925895       -133.34969273579088        3986.2090544221423     
   391.86106233975460        19.281248459902248       -135.30931473523756        4121.5183691573802     
   395.45211389976470        19.264170977187241       -137.38058572195061        4258.8989548793306     
   399.25862855337539        19.245899435949642       -139.56909811021708        4398.4680529895477     
   403.29353408620273        19.226345182274915       -141.88058829205121        4540.3486412815992     
   407.57053395099973        19.205412861098587       -144.32091313728361        4684.6695544188824     
   412.10415380768455        19.182999973525828       -146.89602000742073        4831.5655744263031     
   416.90979085577044        19.158996425760758       -149.61190943571447        4981.1774838620177     
   422.00376612674148        19.133284075066143       -152.47458970167131        5133.6520735636886     
   427.40337991397081        19.105736279470932       -155.49002265943901        5289.1420962231277     
   433.12697052843384        19.076217447853900       -158.66406133202028        5447.8061575551483     
   438.85056114289688        19.046391088319272       -161.81484621065425        5609.6210037658029     
   444.57415175735991        19.016267728605321       -164.94151100145459        5774.5625147672572     
   450.29774237182295        18.985857788347140       -168.04324005072135        5942.6057548179788     
   456.02133298628598        18.955171572214148       -171.11926975614986        6113.7250245741288     
   461.74492360074902        18.924219262394026       -174.16888957444752        6287.8939141485762     
   467.46851421521205        18.893010910779740       -177.19144249707298        6465.0853566456490     
   473.19210482967509        18.861556431197091       -180.18632493312003        6645.2716815787689     
   478.91569544413812        18.829865591970684       -183.15298599465243        6828.4246675734212     
   484.63928605860116        18.797948009073515       -186.09092622245407        7014.5155937958752     
   490.36287667306419        18.765813140047861       -188.99969581946064        7203.5152896153359     
   496.08646728752723        18.733470278827294       -191.87889247596559        7395.3941820913014     
   501.81005790199026        18.700928562835461       -194.72815697465865        7590.1223390659597     
   507.87706395332111        18.666221539029323       -197.71439255596715        7787.8367316219264     
   513.94407000465196        18.631312156848505       -200.66630134908397        7988.5030329710107     
   520.01107605598281        18.596210631403569       -203.58360496261218        8192.0866379336221     
   526.07808210731366        18.560926971817693       -206.46606339769642        8398.5527013313185     
   532.50910852172433        18.523333244307789       -209.48210391416464        8608.0348052454829     
   538.94013493613500        18.485557854520405       -212.45856164500742        8820.4933668904905     
   545.75702293541030        18.445324972668150       -215.56897343427622        9036.0623403247664     
   552.57391093468561        18.404914012192496       -218.63458225435608        9254.6969225791217     
   559.79981221391745        18.361893182761094       -221.83368556398639        9476.5306081431081     
   567.45926756990320        18.316100242606669       -225.16795640885780        9701.6985645519653     
   575.57829024724811        18.267365202387559       -228.63841675389673        9930.3369813058616     
   584.18445428523376        18.215510491297149       -232.24531362042896        10162.582294926291     
   593.30698816549852        18.160351262147643       -235.98797853585512        10398.570273462146     
   602.97687407857916        18.101695865144976       -239.86466891314043        10638.434942375286     
   613.22695314644466        18.039346437055823       -243.87240847566508        10882.307350850951     
   623.47703221431016        17.976856223761626       -247.77874755429417        11130.086098405245     
   633.72711128217566        17.914257894606138       -251.58396948934418        11381.670067894589     
   642.95218244325463        17.857854848283974       -254.92700854426650        11636.597076438855     
   652.17725360433360        17.801409465626548       -258.18888412242916        11894.785960561285     
   661.95582903507727        17.741554863140394       -261.55613280971738        12156.342093371002     
   672.32111899166557        17.678111931730417       -265.02518884066768        12421.367282211670     
   683.30832634564911        17.610897193747356       -268.59151214472274        12689.958794356393     
   694.95476614087170        17.539723470894970       -272.24948737608810        12962.208281732481     
   707.29999232380760        17.464400794502989       -275.99224137404138        13238.200523106521     
   715.67499376631133        17.413369150505442       -278.46998305743512        13516.670506163957     
   724.55249529536536        17.359364227802853       -281.02862217241528        13797.699128336371     
   733.42999682441939        17.305460390107992       -283.52026480629860        14081.219393142670     
   742.30749835347342        17.251669805872883       -285.94550200733414        14367.164895150005     
   751.18499988252745        17.198004507848587       -288.30471852318834        14655.469613673193     
   760.06250141158148        17.144476500139767       -290.59815325920835        14946.067766932401     
   768.94000294063551        17.091097758800572       -292.82603582350708        15238.893802755909     
   777.81750446968954        17.037880148535098       -294.98871040380027        15533.882513159710     
   786.69500599874357        16.984835309307968       -297.08669744311857        15830.969210602829     
   795.57250752779760        16.931974556807205       -299.12069410403967        16130.089904706869     
   804.45000905685163        16.879308818248745       -301.09153645338858        16431.181441160257     
   813.32751058590566        16.826848605432321       -303.00014810268709        16734.181589262946     
   822.20501211495969        16.774604015696720       -304.84749295986882        17039.029082222816     
   831.08251364401372        16.722584747679964       -306.63454123081715        17345.663623453635     
   839.96001517306775        16.670800119971517       -308.36225102774563        17654.025874481380     
   848.83751670212177        16.619259084319349       -310.03156364579200        17964.057438127173     
   857.71501823117580        16.567970228929052       -311.64340870994164        18275.700846837113     
   866.59251976022983        16.516941771577880       -313.19871500108758        18588.899561838200     
   875.47002128928386        16.466181544600211       -314.69842014253857        18903.597981980740     
   884.34752281833789        16.415696974917374       -316.14348172212289        19219.741463702863     
   893.22502434739192        16.365495061264113       -317.53488532949842        19537.276349032363     
   902.10252587644595        16.315582351608786       -318.87365036731825        19856.149999399680     
   910.98002740549998        16.265964922617581       -320.16083346619178        20176.310832865871     
   919.85752893455401        16.216648362573089       -321.39752969527137        20497.708362561141     
   928.73503046360804        16.167637781608654       -322.58484741157707        20820.293209972719     
   938.14518208440529        16.116035744083646       -323.78937478540502        21144.082584758122     
   947.55533370520254        16.064787631146519       -324.94131607074024        21469.023900828863     
   956.96548532599979        16.013897476684718       -326.04222200486305        21795.066122833727     
   966.37563694679704        15.963368548274881       -327.09377286074221        22122.159895694469     
   972.39813398410729        15.931178705875487       -327.74700364822286        22449.906899342692     
   978.78198084365613        15.897225194652949       -328.41784066367541        22778.324740006366     
   985.16582770320497        15.863439859913392       -329.06774487863623        23107.392484885004     
   991.54967456275381        15.829822932618855       -329.69742467668607        23437.089909561691     
   997.93352142230265        15.796374401605750       -330.30764076112189        23767.397550322814     
   1004.3173682818515        15.763094001366184       -330.89920266376726        24098.296752986582     
   1010.7012151414003        15.729981202385762       -331.47296543780027        24429.769718424381     
   1017.0850620009492        15.697035228071019       -332.02981731313173        24761.799535737511     
   1023.8519396720709        15.662298610218871       -332.60221675551753        25094.401752493028     
   1031.0248300034600        15.625684892458951       -333.19030083268666        25427.592053325716     
   1038.6280937547324        15.587103986328851       -333.79449247296179        25761.386545798676     
   1046.2313575060048        15.548749161036479       -334.38134153012692        26095.767887328802     
   1054.2908170823534        15.508341876763852       -334.98627622160785        26430.754163550409     
   1062.8338442332831        15.465782562294422       -335.61116852599173        26766.365332076402     
   1071.8894530132686        15.420965950654352       -336.25870613127643        27102.624038207679     
   1081.4883983200532        15.373780052179956       -336.93247820789702        27439.556516415578     
   1091.0873436268378        15.326899795298019       -337.59735047943190        27777.153866895009     
   1100.6862889336223        15.280310378281573       -338.25656018092587        28115.410427075934     
   1110.2852342404069        15.233996815101612       -338.91271008587609        28454.323137161809     
   1119.8841795471915        15.187944420530009       -339.56767663399648        28793.890813795806     
   1129.4831248539761        15.142139284238350       -340.22255697279218        29134.113370768599     
   1139.0820701607606        15.096568707648943       -340.87770838241727        29474.991079151016     
   1149.2569521859523        15.048514182501997       -341.57197399713527        29816.563053148151     
