 #              _____________________  _______________________             #
 #              ___  __ \__  __ \_  / / /_  /___  ____/_  ___/             #
 #              __  / / /_  /_/ /  / / /_  __/_  __/  _____ \              #
 #              _  /_/ /_  _, _// /_/ / / /_ _  /___  ____/ /              #
 #              /_____/ /_/ |_| \____/  \__/ /_____/  /____/               #
 #                                                                         #
  
 #        time                      T            heat flux [W.L-2]   in    x              directions   cumulative flux
 #-----------------------------------------------------------------------------------------------

   0.0000000000000000        5.5797999999999996       -5.0279443959888326        5.0279443959888326     
   1.0000000000000000        5.5792416555167250       -4.8821448880688916        9.9100892840577242     
   1.9540000000000002        5.5787377224715966       -4.7544220840464204        14.664511368104144     
   2.8641160000000001        5.5782810877354692       -4.6420262399713881        19.306537608075530     
   3.8288389600000006        5.5778219572953764       -4.5325415230681347        23.839079131143663     
   4.8514452976000007        5.5773608931929601       -4.4263024164201124        28.265381547563777     
   5.9354080154560007        5.5768984085376658       -4.3236161724786450        32.588997720042421     
   7.0844084963833609        5.5764349561482982       -4.2247579111240361        36.813755631166458     
   8.3023490061663630        5.5759709178448844       -4.1299662574766920        40.943721888643154     
   9.5933659465363448        5.5755065947150042       -4.0394396956389054        44.983161584282058     
   10.961843903328527        5.5750421986587533       -3.9533338011209995        48.936495385403056     
   12.412430537528239        5.5745778454775001       -3.8717594907878330        52.808254876190887     
   13.950052369779934        5.5741135497135144       -3.7947823947545993        56.603037270945485     
   15.579931511966731        5.5736492213720945       -3.7224234105588261        60.325460681504310     
   17.307603402684734        5.5731846645681067       -3.6546604478217866        63.980121129326093     
   19.138935606845820        5.5727195780401271       -3.5914313141822389        67.571552443508338     
   21.080147743256571        5.5722535573742640       -3.5326376340499350        71.104190077558272     
   23.137832607851966        5.5717860986840986       -3.4781496348585645        74.582339712416839     
   25.318978564323086        5.5713166034115078       -3.4278115855631950        78.010151297980030     
   27.630993278182473        5.5708443838535695       -3.3814476335696102        81.391598931549638     
   30.081728874873424        5.5703686689903256       -3.3388677630405290        84.730466694590163     
   32.679508607365833        5.5698886101916703       -3.2998735924327915        88.030340287022952     
   35.433155123807786        5.5694032864208909       -3.2642637435683315        91.294604030591287     
   38.352020431236255        5.5689117086257145       -3.2318385480616310        94.526442578652919     
   41.446017657110431        5.5684128231094991       -3.2024039071166941        97.728846485769608     
   44.725654716537058        5.5679055137967488       -3.1757741834011646        100.90462066917077     
   48.202069999529286        5.5673886034367364       -3.1517740732192903        104.05639474239005     
   51.887070199501046        5.5668608539139308       -3.1302394771097157        107.18663421949977     
   55.793170411471110        5.5663209659415491       -3.1110174508134731        110.29765167031324     
   59.933636636159378        5.5657675784939116       -3.0939653705291268        113.39161704084238     
   64.322530834328944        5.5651992683769773       -3.0789494823846546        116.47056652322703     
   68.974758684388689        5.5646145503409805       -3.0658430240034904        119.53640954723052     
   73.626986534448434        5.5640451911618278       -3.0550509243425932        122.59146047157311     
   78.558348055511757        5.5634566605029123       -3.0457438043613707        125.63720427593448     
   83.785591267838882        5.5628474629443625       -3.0378324511021559        128.67503672703663     
   89.326469072905638        5.5622160448028355       -3.0312245251693968        131.70626125220602     
   95.199799546276395        5.5615607995783147       -3.0258232944128518        134.73208454661886     
   101.42552984804939        5.5608800747547429       -3.0215265785095258        137.75361112512840     
   108.02480396792878        5.5601721798459245       -3.0182259522167141        140.77183707734511     
   115.02003453500092        5.5594353954947611       -3.0158062523933009        143.78764332973842     
   122.01526510207306        5.5587107653268317       -3.0142035657751300        146.80184689551353     
   129.43020950316952        5.5579549503017294       -3.0131767528357276        149.81502364834927     
   136.84515390426600        5.5572103281498588       -3.0126275487529299        152.82765119710220     
   144.70499496942827        5.5564325503949323       -3.0124013198959165        155.84005251699813     
   153.03642649850028        5.5556200412786110       -3.0123964914397434        158.85244900843787     
   161.86774391931661        5.5547712213579992       -3.0125088544267618        161.86495786286463     
   171.22894038538192        5.5538845102251795       -3.0126352858599899        164.87759314872463     
   181.15180863941114        5.5529583243441571       -3.0126792785630294        167.89027242728767     
   191.67004898868211        5.5519910670371493       -3.0125589677882454        170.90283139507591     
   202.81938375890934        5.5509811063459971       -3.0122185298801143        173.91504992495601     
   214.63767861535021        5.5499267347615531       -3.0116440174780763        176.92669394243410     
   226.45597347179108        5.5488875544942395       -3.0109288760172279        179.93762281845133     
   238.27426832823195        5.5478625704649991       -3.0101871369405311        182.94780995539188     
   250.09256318467283        5.5468507534567459       -3.0095685847197604        185.95737854011165     
   261.91085804111367        5.5458510135019505       -3.0092542009248535        188.96663274103651     
   273.72915289755451        5.5448621796542019       -3.0094520082023797        191.97608474923888     
   285.54744775399536        5.5438829851012308       -3.0103931287485759        194.98647787798745     
   295.00208363914805        5.5431051070878592       -3.0117482823828658        197.99822616037031     
   305.02399767740991        5.5422858299450830       -3.0140208458363431        201.01224700620665     
   315.64722655796749        5.5414221970275443       -3.0175678491184312        204.02981485532507     
   326.90784917135852        5.5405107053888276       -3.0228512297259633        207.05266608505104     
   338.84410914155302        5.5395471448703901       -3.0304616621888592        210.08312774723990     
   351.49654470995915        5.5385263942073983       -3.0411458685168857        213.12427361575678     
   364.14898027836529        5.5375038115398230       -3.0548048232986398        216.17907843905542     
   377.56056198087583        5.5364147374511656       -3.0730446425943900        219.25212308164981     
   391.77683858553701        5.5352507135830127       -3.0970882887424875        222.34921137039231     
   406.84609178647781        5.5340013156966092       -3.1284137416999505        225.47762511209226     
   422.81950017947509        5.5326536917349713       -3.1687877612772564        228.64641287336951     
   439.75131307605221        5.5311920212761008       -3.2202983895513668        231.86671126292089     
   457.69903474642393        5.5295968936269517       -3.2853841985209327        235.15209546144183     
   475.64675641679565        5.5279475714562185       -3.3615503348246296        238.51364579626647     
   493.59447808716737        5.5262357337580958       -3.4492922413724778        241.96293803763896     
   511.54219975753909        5.5244532556679147       -3.5490049408350286        245.51194297847400     
   529.48992142791087        5.5225922779942858       -3.6609853204612857        249.17292829893529     
   548.51450639850486        5.5205224923061333       -3.7937039662418020        252.96663226517708     
   568.68056646733453        5.5182093101600884       -3.9502798576911893        256.91691212286827     
   588.84662653616419        5.5157675318720152       -4.1227655766696527        261.03967769953795     
   610.22265020912369        5.5130244719664292       -4.3233540438341995        265.36303174337212     
   632.88123530246071        5.5099318466843217       -4.5556253099655466        269.91865705333765     
   656.89933550139801        5.5064341232071561       -4.8233869979957520        274.74204405133338     
   680.91743570033532        5.5027066494286032       -5.1120455944516099        279.85408964578500     
   706.37662191120887        5.4984870484665693       -5.4405837046204404        285.29467335040545     
   733.36335929473478        5.4937025192133033       -5.8129533773254121        291.10762672773086     
   761.96930092127229        5.4882712607202606       -6.2331774980540509        297.34080422578489     
   790.57524254780981        5.4824734472317802       -6.6772387007614427        304.01804292654634     
   819.18118417434732        5.4763044790170898       -7.1434058723178726        311.16144879886423     
   847.78712580088484        5.4697618740648437       -7.6299177728858707        318.79136657175007     
   876.39306742742235        5.4628450887089395       -8.1350046808481995        326.92637125259830     
   904.99900905395987        5.4555553411301361       -8.6569066426692345        335.58327789526754     
   935.32130717808957        5.4474125931257866       -9.2269529118524058        344.81023080711992     
   967.46294318966704        5.4383206177792331       -9.8477190797694192        354.65794988688936     
   1001.5330773619391        5.4281754769931769       -10.521545417234956        365.17949530412432     
   1037.6474195845476        5.4168656617503226       -11.250463544188175        376.42995884831248     
   1075.9286223405127        5.4042723804692656       -12.036127804776777        388.46608665308923     
   1116.5066972618356        5.3902699787067139       -12.879759000636279        401.34584565372552     
   1157.0847721831585        5.3756419700010465       -13.730779727179820        415.07662538090534     
   1197.6628471044814        5.3604174227810280       -14.586114504588268        429.66273988549364     
   1238.2409220258044        5.3446260097000406       -15.443040408645153        445.10578029413881     
   1278.8189969471273        5.3282975698545805       -16.299164353384512        461.40494464752334     
   1321.8317563637295        5.3104213288895634       -17.203280221995719        478.60822486951906     
   1367.4252813453279        5.2908755597326778       -18.155315614363325        496.76354048388237     
   1415.7544178258222        5.2695343513957162       -19.154783365401386        515.91832384928375     
   1466.9833024951463        5.2462684747071338       -20.200710844114717        536.11903469339848     
   1518.2121871644704        5.2224120241304428       -21.230875855509520        557.34991054890804     
   1569.4410718337945        5.1980167478751156       -22.243334466589555        579.59324501549759     
   1602.2275580221619        5.1821963167119574       -22.883592138915596        602.47683715441315     
   1636.9812333818313        5.1652089293560959       -23.553106670494021        626.02994382490715     
   1673.8201292630808        5.1469754129259222       -24.251989536876177        650.28193336178333     
   1712.8693588972053        5.1274133829162789       -24.980148526365998        675.26208188814928     
   1754.2615423093773        5.1064375170654372       -25.737267519005677        700.99934940715491     
   1798.1372567262797        5.0839598917425839       -26.522788965415764        727.52213837257068     
   1844.6455140081962        5.0598903701967011       -27.335902592710042        754.85804096528068     
   1893.9442667270278        5.0341370157250731       -28.175545722642660        783.03358668792339     
   1946.2009446089892        5.0066064818477622       -29.040421348822434        812.07400803674579     
   1998.4576224909506        4.9788784621596101       -29.880220257580344        841.95422829432619     
   2050.7143003729120        4.9509846395127575       -30.695191826298604        872.64942012062477     
   2102.9709782548734        4.9229540027944054       -31.485718619767400        904.13513874039222     
   2155.2276561368349        4.8948130724958006       -32.252261235144587        936.38739997553682     
   2210.6197346917138        4.8648885940471116       -33.038438333270172        969.42583830880699     
   2269.3353379598857        4.8330931597002635       -33.842876822647554        1003.2687151314545     
   2331.5738774241477        4.7993393763368086       -34.663901671086279        1037.9326168025409     
   2397.5467292562657        4.7635409578961605       -35.499463579484001        1073.4320803820249     
   2467.4779521983105        4.7256140400190141       -36.347084271436948        1109.7791646534617     
   2541.6050485168780        4.6854782054088489       -37.203931685476356        1146.9830963389381     
   2615.7321448354455        4.6454495369357502       -38.020438813749045        1185.0035351526872     
   2689.8592411540130        4.6055640262200184       -38.798027278082870        1223.8015624307700     
   2763.9863374725805        4.5658534236182158       -39.538191967297394        1263.3397543980673     
   2842.5610595702624        4.5239894942904861       -40.282562591333615        1303.6223169894008     
   2925.8502649938050        4.4799041662073593       -41.028752030309938        1344.6510690197108     
   2992.4816293326389        4.4448360603351942       -41.599524476612977        1386.2505934963237     
   3063.1108755318032        4.4079028857523568       -42.176614414066428        1428.4272079103903     
   3133.7401217309675        4.3712204877075038       -42.727184526668900        1471.1543924370592     
   3208.6071227020816        4.3326306222420827       -43.282528001523346        1514.4369204385825     
   3287.9661437314626        4.2920670095428246       -43.841049271637033        1558.2779697102196     
   3367.3251647608436        4.2518557610153600       -44.370775648309653        1602.6487453585294     
   3446.6841857902245        4.2120071403261834       -44.872786538607521        1647.5215318971368     
   3526.0432068196055        4.1725313004796805       -45.347956444811594        1692.8694883419485     
   3610.1637691107494        4.1311170871304856       -45.822510144388858        1738.6919984863373     
   3677.4602189436641        4.0982660729237343       -46.184125855264490        1784.8761243416018     
   3748.7944557665542        4.0637635852496024       -46.548052295956360        1831.4241766375580     
   3820.1286925894442        4.0295837756059640       -46.893528405843824        1878.3177050434019     
   3895.7429836217075        3.9937178498168260       -47.240102185609004        1925.5578072290109     
   3975.8941321159064        3.9561106863321851       -47.586654702057572        1973.1444619310685     
   4060.8543495197573        3.9167078938674047       -47.932064515762235        2021.0765264468307     
   4145.8145669236083        3.8777637132730378       -48.256919005559602        2069.3334454523902     
   4230.7747843274592        3.8392749588596375       -48.562467516416717        2117.8959129688069     
   4315.7350017313101        3.8012379873496243       -48.849793479346893        2166.7457064481537     
   4405.7928321793925        3.7614217327964248       -49.135033013672299        2215.8807394618261     
   4501.2541324543590        3.7197749159279430       -49.417070538798505        2265.2978100006248     
   4596.7154327293256        3.6786792640929558       -49.680047479508083        2314.9778574801330     
   4692.1767330042921        3.6381286436826406       -49.924805981557661        2364.9026634616907     
   4787.6380332792587        3.5981190690714575       -50.151798102055082        2415.0544615637459     
   4888.8270115707237        3.5563137458826892       -50.372921854047675        2465.4273834177934     
   4969.7781942038955        3.5232546424846038       -50.537767470498181        2515.9651508882916     
   5050.7293768370673        3.4905775856633996       -50.691193838671204        2566.6563447269627     
   5131.6805594702391        3.4582783112826139       -50.833910208788076        2617.4902549357507     
   5217.4888130614017        3.4244596298032546       -50.973935587916827        2668.4641905236676     
   5308.4455618680340        3.3890752675447198       -51.110386132261155        2719.5745766559289     
   5404.8597156030637        3.3520812929918904       -51.242135579386741        2770.8167122353157     
   5501.2738693380934        3.3155937012740369       -51.361585052952798        2822.1782972882684     
   5597.6880230731231        3.2796044797560358       -51.469511346530481        2873.6478086347988     
   5694.1021768081528        3.2441040737475033       -51.566857298232335        2925.2146659330310     
   5790.5163305431824        3.2090819258086958       -51.654528974981048        2976.8691949080121     
   5892.7153335023140        3.1724823595619709       -51.737610304150557        3028.6068052121627     
   5994.9143364614456        3.1363936065863425       -51.811611822134999        3080.4184170342978     
   6097.1133394205772        3.1008050436490660       -51.876793019563358        3132.2952100538610     
   6199.3123423797088        3.0657101368013691       -51.932876408847768        3184.2280864627087     
   6307.6432855163885        3.0290595110566807       -51.981797404568063        3236.2098838672769     
   6415.9742286530682        2.9929524748786802       -52.020652441872905        3288.2305363091496     
   6530.8050283779485        2.9552770495615883       -52.051853294806804        3340.2823896039563     
   6645.6358281028288        2.9181864695158861       -52.073908419010863        3392.3562980229672     
   6767.3564758112025        2.8795146949573684       -52.087341462996676        3444.4436394859640     
   6896.3803623820786        2.8392326776147949       -52.090832347894903        3496.5344718338588     
   7025.4042489529547        2.7996450765893290       -52.084481729816254        3548.6189535636749     
   7154.4281355238309        2.7607320802844066       -52.069708635191191        3600.6886621988660     
   7283.4520220947070        2.7224711650069664       -52.047921293185382        3652.7365834920515     
   7412.4759086655831        2.6848381571974551       -52.020432261941835        3704.7570157539935     
   7541.4997952364592        2.6478107467800061       -51.987965721411982        3756.7449814754054     
   7670.5236818073354        2.6113693894680621       -51.950882791385233        3808.6958642667905     
   7799.5475683782115        2.5755022265090401       -51.908502421658575        3860.6043666884493     
   7936.3128881433395        2.5381188286230931       -51.856997235804414        3912.4613639242539     
   8073.0782079084674        2.5013560919649578       -51.799869226956396        3964.2612331512105     
   8218.0494468595043        2.4630664136575828       -51.733629015146228        4015.9948621663566     
