 #              _____________________  _______________________             #
 #              ___  __ \__  __ \_  / / /_  /___  ____/_  ___/             #
 #              __  / / /_  /_/ /  / / /_  __/_  __/  _____ \              #
 #              _  /_/ /_  _, _// /_/ / / /_ _  /___  ____/ /              #
 #              /_____/ /_/ |_| \____/  \__/ /_____/  /____/               #
 #                                                                         #
  
 #        time                      T            heat flux [W.L-2]   in    x              directions   cumulative flux
 #-----------------------------------------------------------------------------------------------

   0.0000000000000000        5.4707999999999997       0.83978018327393922       0.83978018327393922     
   1.0000000000000000        5.4701489956912415        1.0097720618602617        1.8495522451342010     
   1.9540000000000002        5.4695614328512780        1.1586883853307435        3.0082406304649445     
   2.8641160000000001        5.4690290179903007        1.2897355355741675        4.2979761660391116     
   3.8288389600000006        5.4684936939143318        1.4173905746948607        5.7153667407339723     
   4.8514452976000007        5.4679561166333484        1.5412652708851675        7.2566320116191401     
   5.9354080154560007        5.4674168857133747        1.6610041796484529        8.9176361912675937     
   7.0844084963833609        5.4668765314244743        1.7762907518846227        10.693926943152217     
   8.3023490061663630        5.4663355028311464        1.8868528968723477        12.580779840024565     
   9.5933659465363448        5.4657941572649342        1.9924677968494304        14.573247636873996     
   10.961843903328527        5.4652527516084310        2.0929657804402617        16.666213417314257     
   12.412430537528239        5.4647114357871605        2.1882330834172001        18.854446500731456     
   13.950052369779934        5.4641702488097943        2.2782133573552201        21.132659858086676     
   15.579931511966731        5.4636291176183942        2.3629078289906902        23.495567687077365     
   17.307603402684734        5.4630878589108534        2.4423740639854850        25.937941751062851     
   19.138935606845820        5.4625461839815426        2.5167233459330345        28.454665096995885     
   21.080147743256571        5.4620037064989351        2.5861167416471895        31.040781838643074     
   23.137832607851966        5.4614599530080650        2.6507599832206470        33.691541821863723     
   25.318978564323086        5.4609143758191276        2.7108973519530037        36.402439173816724     
   27.630993278182473        5.4603663678300434        2.7668047949310774        39.169243968747800     
   30.081728874873424        5.4598152787385263        2.8187825382105514        41.988026506958349     
   32.679508607365833        5.4592604320350056        2.8671474784387043        44.855173985397052     
   35.433155123807786        5.4587011421366869        2.9122256358320797        47.767399621229131     
   38.352020431236255        5.4581367310273672        2.9543449355725389        50.721744556801667     
   41.446017657110431        5.4575665438068306        2.9938285533665145        53.715573110168179     
   44.725654716537058        5.4569899626242417        3.0309890168707718        56.746562127038949     
   48.202069999529286        5.4564064185658232        3.0661232019340412        59.812685328972989     
   51.887070199501046        5.4558154011803692        3.0995083056456205        62.912193634618610     
   55.793170411471110        5.4552164654475934        3.1313988218298965        66.043592456448508     
   59.933636636159378        5.4546092361150906        3.1620244931268746        69.205616949575386     
   64.322530834328944        5.4539934094414813        3.1915891706956914        72.397206120271079     
   68.974758684388689        5.4533687524796939        3.2202704800892152        75.617476600360291     
   73.626986534448434        5.4527695788799466        3.2467484827904136        78.864225083150700     
   78.558348055511757        5.4521604539596504        3.2727483058074873        82.136973388958182     
   83.785591267838882        5.4515413479488020        3.2983539589006394        85.435327347858816     
   89.326469072905638        5.4509122728452546        3.3236324885943822        88.758959836453201     
   95.199799546276395        5.4502732760474508        3.3486349053242024        92.107594741777405     
   101.42552984804939        5.4496244330349972        3.3733972834742523        95.480992025251652     
   108.02480396792878        5.4489658393061209        3.3979419730925495        98.878933998344195     
   115.02003453500092        5.4482976017713272        3.4222788728706099        102.30121287121480     
   122.01526510207306        5.4476566954281651        3.4451211646818316        105.74633403589664     
   129.43020950316952        5.4470054024462806        3.4678327273074916        109.21416676320413     
   136.84515390426600        5.4463798532776480        3.4891892827613553        112.70335604596549     
   144.70499496942827        5.4457432618962729        3.5104492249746855        116.21380527094018     
   153.03642649850028        5.4450956897757870        3.5315805121401946        119.74538578308038     
   161.86774391931661        5.4444371731798569        3.5525468011512831        123.29793258423166     
   171.22894038538192        5.4437677159935021        3.5733080441639924        126.87124062839565     
   181.15180863941114        5.4430872825203807        3.5938210998434648        130.46506172823911     
   191.67004898868211        5.4423957902984466        3.6140403512052397        134.07910207944434     
   202.81938375890934        5.4416931029706497        3.6339183210690345        137.71302040051339     
   214.63767861535021        5.4409790232292465        3.6534062749095613        141.36642667542296     
   226.45597347179108        5.4402928498945728        3.6714549523806608        145.03788162780361     
   238.27426832823195        5.4396320659021340        3.6881907611237303        148.72607238892735     
   250.09256318467283        5.4389944485401500        3.7037257609850074        152.42979814991236     
   261.91085804111367        5.4383780273107520        3.7181597681866951        156.14795791809905     
   273.72915289755451        5.4377810488717024        3.7315820499765904        159.87953996807565     
   285.54744775399536        5.4372019476881803        3.7440727120187369        163.62361268009440     
   295.00208363914805        5.4367493752032212        3.7535066564254351        167.37711933651983     
   305.02399767740991        5.4362808843019277        3.7629200582086675        171.14003939472849     
   315.64722655796749        5.4357960464058879        3.7722837932263813        174.91232318795488     
   326.90784917135852        5.4352944032708645        3.7815672561277154        178.69389044408260     
   338.84410914155302        5.4347754619956348        3.7907384338774310        182.48462887796003     
   351.49654470995915        5.4342386895313988        3.7997639778491776        186.28439285580922     
   364.14898027836529        5.4337142481256171        3.8081443895669187        190.09253724537612     
   377.56056198087583        5.4331711489953562        3.8163572644862347        193.90889450986236     
   391.77683858553701        5.4326087349713328        3.8243679877955716        197.73326249765793     
   406.84609178647781        5.4320262901235461        3.8321406321530485        201.56540312981099     
   422.81950017947509        5.4314230320997634        3.8396379537297678        205.40504108354077     
   439.75131307605221        5.4307981037949187        3.8468213614572657        209.25186244499804     
   457.69903474642393        5.4301505643163264        3.8536508550734467        213.10551330007149     
   475.64675641679565        5.4295166272771489        3.8597602987171542        216.96527359878866     
   493.59447808716737        5.4288951441788837        3.8652072993221851        220.83048089811084     
   511.54219975753909        5.4282850829596834        3.8700431462958624        224.70052404440671     
   529.48992142791087        5.4276855134519808        3.8743136207809439        228.57483766518766     
   548.51450639850486        5.4270607626215739        3.8782535654701120        232.45309123065778     
   568.68056646733453        5.4264095909206231        3.8818218112078129        236.33491304186558     
   588.84662653616419        5.4257685282512096        3.8848274595381946        240.21974050140378     
   610.22265020912369        5.4250993408357919        3.8874293143251033        244.10716981572887     
   632.88123530246071        5.4244005341410411        3.8895814162043787        247.99675123193325     
   656.89933550139801        5.4236704815726675        3.8912347601923960        251.88798599212564     
   680.91743570033532        5.4229500826226840        3.8923068506322740        255.78029284275792     
   706.37662191120887        5.4221962143813753        3.8928389362800977        259.67313177903799     
   733.36335929473478        5.4214069181464160        3.8927746403297916        263.56590641936776     
   761.96930092127229        5.4205800588093833        3.8920528959502909        267.45795931531808     
   790.57524254780981        5.4197619062210132        3.8907229085431134        271.34868222386120     
   819.18118417434732        5.4189514864785213        3.8888237982231493        275.23750602208435     
   847.78712580088484        5.4181479231142617        3.8863890953050877        279.12389511738945     
   876.39306742742235        5.4173504227212135        3.8834472514362144        283.00734236882568     
   904.99900905395987        5.4165582624168991        3.8800220529035689        286.88736442172922     
   935.32130717808957        5.4157237860864207        3.8758711341199823        290.76323555584918     
   967.46294318966704        5.4148442394050562        3.8709075410027443        294.63414309685191     
   1001.5330773619391        5.4139165895482702        3.8650302378371499        298.49917333468909     
   1037.6474195845476        5.4129374757744584        3.8581201879919651        302.35729352268106     
   1075.9286223405127        5.4119031457485089        3.8500352451527489        306.20732876783381     
   1116.5066972618356        5.4108093729684068        3.8406035815563038        310.04793234939012     
   1157.0847721831585        5.4097169024585590        3.8302919651281608        313.87822431451826     
   1197.6628471044814        5.4086244348948256        3.8190721268703101        317.69729644138857     
   1238.2409220258044        5.4075306705289208        3.8069069012101782        321.50420334259877     
   1278.8189969471273        5.4064342966937886        3.7937512864409677        325.29795462903974     
   1321.8317563637295        5.4052676162301569        3.7786314756642621        329.07658610470401     
   1367.4252813453279        5.4040239074120437        3.7612017271778564        332.83778783188188     
   1415.7544178258222        5.4026952951435856        3.7410430459518471        336.57883087783375     
   1466.9833024951463        5.4012724823102634        3.7176486494402439        340.29647952727402     
   1518.2121871644704        5.3998321634621309        3.6920885669897330        343.98856809426377     
   1569.4410718337945        5.3983712332709297        3.6642216644381955        347.65278975870194     
   1602.2275580221619        5.3974269685822209        3.6454049919896736        351.29819475069161     
   1636.9812333818313        5.3964146334358194        3.6243124282500565        354.92250717894166     
   1673.8201292630808        5.3953275265931406        3.6006145597246539        358.52312173866630     
   1712.8693588972053        5.3941579750414919        3.5739302944496791        362.09705203311597     
   1754.2615423093773        5.3928971598714872        3.5438193455467015        365.64087137866267     
   1798.1372567262797        5.3915349114603810        3.5097740054035014        369.15064538406619     
   1844.6455140081962        5.3900594698352720        3.4712102790911867        372.62185566315736     
   1893.9442667270278        5.3884572060359286        3.4274584988058705        376.04931416196325     
   1946.2009446089892        5.3867123004367654        3.3777536059713249        379.42706776793460     
   1998.4576224909506        5.3849174656288579        3.3246345470446199        382.75170231497924     
   2050.7143003729120        5.3830693491303618        3.2680279086205530        386.01973022359982     
   2102.9709782548734        5.3811646849044781        3.2078732097996459        389.22760343339945     
   2155.2276561368349        5.3792003075663288        3.1441229043860326        392.37172633778550     
   2210.6197346917138        5.3770473477625540        3.0724670330484529        395.44419337083394     
   2269.3353379598857        5.3746816315994712        2.9918984204057884        398.43609179123973     
   2331.5738774241477        5.3720754335605516        2.9013020717838982        401.33739386302364     
   2397.5467292562657        5.3691970001807565        2.7994509032608024        404.13684476628441     
   2467.4779521983105        5.3660100358005742        2.6850032815450913        406.82184804782952     
   2541.6050485168780        5.3624731549688498        2.5565028875295970        409.37835093535909     
   2615.7321448354455        5.3587721307547209        2.4209517122547797        411.79930264761390     
   2689.8592411540130        5.3549021589641139        2.2785149063286978        414.07781755394262     
   2763.9863374725805        5.3508590688257947        2.1293837273139249        416.20720128125657     
   2842.5610595702624        5.3463746919427129        1.9640385875444739        418.17123986880102     
   2925.8502649938050        5.3413939606274550        1.7809420658587229        419.95218193465973     
   2992.4816293326389        5.3372622231361184        1.6296339857496180        421.58181592040933     
   3063.1108755318032        5.3327156911687563        1.4640446847937560        423.04586060520307     
   3133.7401217309675        5.3280011562174394        1.2934857987520740        424.33934640395518     
   3208.6071227020816        5.3228141776634894        1.1073943977498235        425.44674080170500     
   3287.9661437314626        5.3171026385596685       0.90452861102421744        426.35126941272921     
   3367.3251647608436        5.3111779929570133       0.69640165293802336        427.04767106566726     
   3446.6841857902245        5.3050410082263069       0.48336136454131068        427.53103243020860     
   3526.0432068196055        5.2986929413874293       0.26575340901226263        427.79678583922089     
   3610.1637691107494        5.2917288772447408        3.0362761293124891E-002   427.82714860051402     
   3677.4602189436641        5.2860084200514699      -0.16076942268726468        427.98791802320130     
   3748.7944557665542        5.2797788414394189      -0.36629825565523672        428.35421627885654     
   3820.1286925894442        5.2733853461934972      -0.57452152552833646        428.92873780438487     
   3895.7429836217075        5.2664266738152925      -0.79799408271464223        429.72673188709950     
   3975.8941321159064        5.2588498653584654       -1.0376580561324751        430.76438994323200     
   4060.8543495197573        5.2505973954694563       -1.2944690644030867        432.05885900763508     
   4145.8145669236083        5.2421285088447398       -1.5537014731315364        433.61256048076660     
   4230.7747843274592        5.2334480805414021       -1.8150239794013707        435.42758446016796     
   4315.7350017313101        5.2245611892355681       -2.0781200450773021        437.50570450524526     
   4405.7928321793925        5.2149153649155497       -2.3586366471160272        439.86434115236131     
   4501.2541324543590        5.2044448466055524       -2.6574186262395267        442.52175977860082     
   4596.7154327293256        5.1937362239116549       -2.9572563841840855        445.47901616278489     
   4692.1767330042921        5.1827974581805805       -3.2577950720949138        448.73681123487978     
   4787.6380332792587        5.1716365912770677       -3.5587030814192286        452.29551431629903     
   4888.8270115707237        5.1595661505411439       -3.8777142106166611        456.17322852691569     
   4969.7781942038955        5.1497611872204159       -4.1327777235626213        460.30600625047833     
   5050.7293768370673        5.1398125471462039       -4.3875307472433756        464.69353699772171     
   5131.6805594702391        5.1297251483366821       -4.6418184985856765        469.33535549630739     
   5217.4888130614017        5.1188824205398618       -4.9106691220660883        474.24602461837350     
   5308.4455618680340        5.1072273738236706       -5.1946812779096234        479.44070589628313     
   5404.8597156030637        5.0946993823242765       -5.4944375021232030        484.93514339840635     
   5501.2738693380934        5.0820057524537265       -5.7927067692416543        490.72785016764800     
   5597.6880230731231        5.0691543723403640       -6.0893150286610984        496.81716519630908     
   5694.1021768081528        5.0561530038826339       -6.3841035039283547        503.20126870023745     
   5790.5163305431824        5.0430092735284049       -6.6769278389504665        509.87819653918791     
   5892.7153335023140        5.0289258624791957       -6.9849600732496526        516.86315661243759     
   5994.9143364614456        5.0147001047124942       -7.2904921248672281        524.15364873730482     
   6097.1133394205772        5.0003405109071206       -7.5934008001700937        531.74704953747494     
   6199.3123423797088        4.9858553854747516       -7.8935773853337663        539.64062692280868     
   6307.6432855163885        4.9703697275126153       -8.2085825248152826        547.84920944762393     
   6415.9742286530682        4.9547619951229578       -8.5203089294038499        556.36951837702782     
   6530.8050283779485        4.9380914255566370       -8.8469581106669750        565.21647648769476     
   6645.6358281028288        4.9213049278135781       -9.1697456981383532        574.38622218583316     
   6767.3564758112025        4.9033929911198468       -9.5074840579351854        583.89370624376829     
   6896.3803623820786        4.8842872386583984       -9.8604523824058017        593.75415862617410     
   7025.4042489529547        4.8650756264469646       -10.208332552382656        603.96249117855677     
   7154.4281355238309        4.8457708791009555       -10.551087258592210        614.51357843714902     
   7283.4520220947070        4.8263852170081893       -10.888693977944804        625.40227241509388     
   7412.4759086655831        4.8069303657028497       -11.221143777133543        636.62341619222741     
   7541.4997952364592        4.7874175633380087       -11.548440440470708        648.17185663269811     
   7670.5236818073354        4.7678575665473106       -11.870599772895597        660.04245640559373     
   7799.5475683782115        4.7482606562854226       -12.187648842082705        672.23010524767642     
   7936.3128881433395        4.7274581078997375       -12.518024227597047        684.74812947527346     
   8073.0782079084674        4.7066368127776546       -12.842759076257630        697.59088855153107     
   8218.0494468595043        4.6845576625717147       -13.180718990754313        710.77160754228532     
