 #              _____________________  _______________________             #
 #              ___  __ \__  __ \_  / / /_  /___  ____/_  ___/             #
 #              __  / / /_  /_/ /  / / /_  __/_  __/  _____ \              #
 #              _  /_/ /_  _, _// /_/ / / /_ _  /___  ____/ /              #
 #              /_____/ /_/ |_| \____/  \__/ /_____/  /____/               #
 #                                                                         #
  
 #        time                      T            heat flux [W.L-2]   in    x              directions   cumulative flux
 #-----------------------------------------------------------------------------------------------

   0.0000000000000000        10.000000000000000       -0.0000000000000000        0.0000000000000000     
   1.0000000000000000        9.4274508807653401       -176.55171816400875        176.55171816400875     
   1.9540000000000002        8.9268043395429668       -326.17318885878086        502.72490702278958     
   2.8641160000000001        8.4865741568893842       -453.63026041718172        956.35516743997130     
   3.8288389600000006        8.0563766211758772       -573.88196983910723        1530.2371372790785     
   4.8514452976000007        7.6371183672584291       -686.56650470733916        2216.8036419864175     
   5.9354080154560007        7.2295730501658779       -791.39752227416989        3008.2011642605876     
   7.0844084963833609        6.8343678037149198       -888.16996906722045        3896.3711333278079     
   8.3023490061663630        6.4519728900888138       -976.76412830353331        4873.1352616313416     
   9.5933659465363448        6.0826950826102397       -1057.1476454270332        5930.2829070583748     
   10.961843903328527        5.7266752054928629       -1129.3753494376285        7059.6582564960036     
   12.412430537528239        5.3838900989219232       -1193.5867729932368        8253.2450294892406     
   13.950052369779934        5.0541590909497920       -1250.0013741818461        9503.2464036710862     
   15.579931511966731        4.7371548484731738       -1298.9115722495994        10802.157975920685     
   17.307603402684734        4.4324182603544902       -1340.6738216957278        12142.831797616413     
   19.138935606845820        4.1393767915780737       -1375.6980560486147        13518.529853665028     
   21.080147743256571        3.8573655547652650       -1404.4359257517740        14922.965779416802     
   23.137832607851966        3.5856501910527654       -1427.3683255386350        16350.334104955436     
   25.318978564323086        3.3234505512094876       -1444.9927482017899        17795.326853157225     
   27.630993278182473        3.0699641313225432       -1457.8110085657704        19253.137861722997     
   30.081728874873424        2.8243882515773313       -1466.3178514377137        20719.455713160711     
   32.679508607365833        2.5859400712533871       -1470.9908914788107        22190.446604639521     
   35.433155123807786        2.3538737006744315       -1472.2822360942159        23662.728840733736     
   38.352020431236255        2.1274938873880811       -1470.6120227231188        25133.340863456855     
   41.446017657110431        1.9061659997681224       -1466.3639700564258        26599.704833513282     
   44.725654716537058        1.6893222836869002       -1459.8829108475477        28059.587744360830     
   48.202069999529286        1.4764646034899473       -1451.4741541749202        29511.061898535751     
   51.887070199501046        1.2671640761948233       -1441.4044277355204        30952.466326271271     
   55.793170411471110        1.0610581516717066       -1429.9040835460676        32382.370409817340     
   59.933636636159378       0.85784577260649053       -1417.1702170182114        33799.540626835551     
   64.322530834328944       0.65728126526257236       -1403.3703493132223        35202.910976148771     
   68.974758684388689       0.45916757195935243       -1388.6463518910034        36591.557328039773     
   73.906120205452012       0.26334935133059001       -1373.1183430312694        37964.675671071040     
   79.133363417779137        6.9706359060068390E-002  -1356.8883499664541        39321.564021037491     
   84.674241222845893      -0.12185260288016564       -1367.1377856339523        40688.701806671445     
   90.547571696216650      -0.31139500086254834       -1507.7465358396491        42196.448342511096     
   95.528155937635049      -0.45913738289216999       -1539.0892524828057        43735.537594993904     
   100.80757523353856      -0.46226307329675037       -1521.1522265671895        45256.689821561093     
   106.08699452944207      -0.46502917751453809       -1503.2913542812380        46759.981175842331     
   111.68317898309978      -0.46789077272305496       -1484.5695669255133        48244.550742767846     
   117.61513450397696      -0.47098497416709911       -1465.1253094525259        49709.676052220369     
   123.90300735610677      -0.47446341439758677       -1445.0598259890721        51154.735878209438     
   130.56815257936438      -0.47848733795265674       -1424.4268655317817        52579.162743741217     
   137.63320651601742      -0.48322644591796149       -1403.2207354747850        53982.383479216005     
   145.12216368886968      -0.48886407251133063       -1381.3636947962545        55363.747174012256     
   153.06045829209305      -0.49561305489057744       -1358.6925520475766        56722.439726059834     
   161.47505057150983      -0.50375021307710011       -1334.9428284981054        58057.382554557938     
   170.39451838769162      -0.51368480591351529       -1309.7224905599182        59367.105045117860     
   179.84915427284432      -0.52609935744874414       -1282.4672834098274        60649.572328527691     
   189.87106831110617      -0.54227341661453443       -1252.3662403925680        61901.938568920261     
   200.49429719166375      -0.56497259201973127       -1218.2738301960217        63120.212399116281     
   211.75491980505478      -0.60163093753868890       -1178.9595373845157        64299.171936500796     
   223.69117977524928      -0.68207985603592558       -1137.2930665045492        65436.465003005345     
   236.34361534365544       -1.4692536340451088       -1273.8042165799409        66710.269219585287     
   240.48956543071077       -1.6239356076003379       -1279.1920788451851        67989.461298430469     
   242.73965546195743       -1.6967974946852631       -1278.5752378345392        69268.036536265005     
   245.12475089507890       -1.6974755875770084       -1278.6075150992033        70546.644051364201     
   247.65295205418766       -1.6982117962349548       -1278.5881484644392        71825.232199828635     
   250.33284528284295       -1.6990130012109323       -1278.5119250524499        73103.744124881079     
   253.17353210521756       -1.6998869980885249       -1278.3729680647953        74382.117092945875     
   256.18466013693461       -1.7008425993056879       -1278.1645919218763        75660.281684867747     
   259.37645585055469       -1.7018897429746960       -1277.8791274243845        76938.160812292132     
   262.75975930699201       -1.7030396100703555       -1277.5077115075358        78215.668523799672     
   266.34606097081553       -1.7043047527571928       -1277.0400350980510        79492.708558897721     
   270.14754073446846       -1.7057342617805642       -1276.4138334253319        80769.122392323057     
   274.17710928394058       -1.7073144536136746       -1275.6552164482623        82044.777608771314     
   278.44845194638106       -1.7090637245101730       -1274.7452188017110        83319.522827573019     
   282.97607516856795       -1.7110028212788044       -1273.6612303401287        84593.184057913153     
   287.77535578408606       -1.7131553193423752       -1272.3761578778997        85865.560215791047     
   292.86259323653525       -1.7155483216193126       -1270.8573246480701        87136.417540439114     
   298.25506493613142       -1.7182135078425993       -1269.0649716212820        88405.482512060393     
   303.97108493770332       -1.7211887474296130       -1266.9501319775341        89672.432644037923     
   310.03006613936958       -1.7245206386084229       -1264.4514869573907        90936.884130995313     
   316.45258621313576       -1.7282686188183392       -1261.4905175244428        92198.374648519763     
   323.26045749132794       -1.7325118565380218       -1257.9637171189972        93456.338365638760     
   330.47680104621168       -1.7373613454505117       -1253.7295521336998        94710.067917772452     
   338.12612521438842       -1.7429824327653949       -1248.5855986529261        95958.653516425373     
   346.23440883265579       -1.7496402124076205       -1242.2261678476291        97200.879684273008     
   354.82918946801919       -1.7578010875713166       -1234.1579916403184        98435.037675913321     
   363.93965694150438       -1.7683950896506289       -1223.5158710224223        99658.553546935742     
   373.59675246339867       -1.7836487919144450       -1208.6083626698419        100867.16190960558     
   383.83327371660664       -1.8107218424116209       -1185.6669832979130        102052.82889290349     
   394.68398624500708       -1.9278100966468785       -1140.6815897193842        103193.51048262288     
   406.18574152511155       -2.3262543123502497       -1129.9387332299823        104323.44921585286     
   410.89686048784233       -2.4491445892609454       -1115.0446378273555        105438.49385368021     
   415.89064658833695       -2.4629964859575058       -1119.3190501054660        106557.81290378567     
   420.88443268883157       -2.4752019905955653       -1122.8370783415648        107680.64998212723     
   426.17784595535585       -2.4868838235856487       -1125.9703809198804        108806.62036304711     
   431.78886401787162       -2.4981760142127594       -1128.7573309815455        109935.37769402866     
   437.73654316413831       -2.5092200883290330       -1131.2282260840573        111066.60592011272     
   444.04108305918101       -2.5201560582501457       -1133.4005625059203        112200.00648261864     
   450.72389534792626       -2.5311160738193510       -1135.2753139019896        113335.28179652063     
   457.80767637399629       -2.5422218669612282       -1136.8344325329774        114472.11622905362     
   465.31648426163048       -2.5535861824935120       -1138.0390822858972        115610.15531133951     
   473.27582062252276       -2.5653180792029446       -1138.8274378881172        116748.98274922762     
   481.71271716506857       -2.5775326128354585       -1139.1100824372684        117888.09283166489     
   490.65582750016711       -2.5903675033226392       -1138.7596308175164        119026.85246248241     
   500.13552445537158       -2.6040148207675737       -1137.5881457305086        120164.44060821291     
   510.18400322788830       -2.6187913198678339       -1135.2984705557860        121299.73907876870     
   520.83539072675603       -2.6353239538525055       -1131.3752228250107        122431.11430159371     
   532.12586147555578       -2.6551484273040771       -1124.8151701996819        123555.92947179340     
   544.09376046928355       -2.6832559110029979       -1113.3252509442698        124669.25472273766     
   556.77973340263497       -2.8526781986452345       -1059.4184257036720        125728.67314844133     
   569.46570633598640       -2.9183020238026507       -1078.8482291039345        126807.52137754527     
   582.91283764533887       -2.9463277856924255       -1081.9414390586505        127889.46281660392     
   597.16679683325253       -2.9649901573759441       -1079.9480455402665        128969.41086214418     
   612.27599357244105       -2.9840310722961787       -1076.0737461281815        130045.48460827237     
   628.29174211598081       -3.0086971571157557       -1070.6773125952516        131116.16192086763     
   645.26843557213306       -3.0479910056127193       -1062.2882613173588        132178.45018218498     
   663.26373063565438       -3.3859582122431351       -987.95417670054235        133166.40435888551     
   679.45949619282362       -3.4347029287436825       -1000.6715912445067        134167.07595013001     
   695.65526174999286       -3.4493621094851235       -998.70113907352720        135165.77708920353     
   712.82277324059226       -3.4606451800642533       -995.63491026161273        136161.41199946514     
   731.02033542062759       -3.4716156644303142       -992.40012168493195        137153.81212115008     
   750.30975133146501       -3.4832625652714060       -989.12063616833586        138142.93275731843     
   770.30975133146501       -3.4958545007806414       -985.83050305679205        139128.76326037521     
   790.30975133146501       -3.5093023778904406       -982.56072685217998        140111.32398722740     
   810.30975133146501       -3.5241119827917307       -979.23648484813850        141090.56047207554     
   830.30975133146501       -3.5409730450174188       -975.70252364653800        142066.26299572206     
   850.30975133146501       -3.5612115838219758       -971.68695024146814        143037.94994596354     
   870.30975133146501       -3.5879316851456089       -966.60211837827512        144004.55206434181     
   890.30975133146501       -3.6307955125861544       -958.64880569982461        144963.20087004165     
   910.30975133146501       -3.8859409052702754       -909.33457848870557        145872.53544853034     
   930.30975133146501       -3.9564250094790436       -907.85944340385538        146780.39489193421     
   950.30975133146501       -4.0042942774047319       -899.82396814678509        147680.21886008099     
   970.30975133146501       -4.0439211228765650       -893.35376107864738        148573.57262115963     
   990.30975133146501       -4.0782486872983457       -887.79631154671358        149461.36893270633     
   1010.3097513314650       -4.1093784078024198       -882.83745296746042        150344.20638567378     
   1030.3097513314651       -4.1388495363689248       -878.22099529865136        151222.42738097243     
   1050.3097513314651       -4.1682117215648828       -873.65707786622579        152096.08445883865     
   1070.3097513314651       -4.2001446596783794       -868.63754630885103        152964.72200514752     
   1090.3097513314651       -4.2430764630209890       -861.58010695149756        153826.30211209902     
   1110.3097513314651       -4.2829650488961626       -855.69072495827515        154681.99283705730     
   1130.3097513314651       -4.3129697607621917       -851.73355365646751        155533.72639071377     
   1150.3097513314651       -4.3339133460809505       -849.03359174642412        156382.75998246018     
   1170.3097513314651       -4.3510418791255097       -846.64248651469188        157229.40246897488     
   1190.3097513314651       -4.3661732150128074       -844.45835016567446        158073.86081914057     
   1210.3097513314651       -4.3805827792077867       -842.32786765261289        158916.18868679318     
   1230.3097513314651       -4.3953854392486518       -840.08386775757288        159756.27255455076     
   1250.3097513314651       -4.4118817476488417       -837.52190432144903        160593.79445887220     
   1270.3097513314651       -4.4322449756971736       -834.27278603406853        161428.06724490627     
   1290.3097513314651       -4.4618670634120434       -829.36904637137354        162257.43629127764     
   1310.3097513314651       -4.5052102268944960       -822.19062531494103        163079.62691659259     
   1316.8633513314651       -4.5236047483249795       -813.13211154402609        163892.75902813661     
   1323.8101673314650       -4.5451988822757459       -809.16814570059410        164701.92717383720     
   1329.7010672994650       -4.5683738459300525       -802.64245436859028        165504.56962820579     
   1335.9454212655451       -4.5923193187398539       -799.56175186191956        166304.13138006770     
   1342.5644364695900       -4.6142242549938102       -798.06055415665026        167102.19193422436     
   1349.5805925858774       -4.6331959842056234       -797.18405799243692        167899.37599221681     
   1357.0177180691421       -4.6492346295678644       -796.51670813222404        168695.89270034904     
   1364.9010710814027       -4.6627126852387013       -795.88891464348865        169491.78161499253     
   1373.2574252743991       -4.6741226176293962       -795.23671579486108        170287.01833078740     
   1382.1151607189752       -4.6839616482299054       -794.53797954932679        171081.55631033672     
   1391.5043602902258       -4.6926842128376052       -793.78493424773330        171875.34124458444     
   1401.4569118357515       -4.7006869986932891       -792.97300277032934        172668.31424735478     
   1412.0066164740088       -4.7083096558908171       -792.09648891541929        173460.41073627019     
   1423.1893033905615       -4.7158434257880888       -791.14686374036114        174251.55760001056     
   1435.0429515221072       -4.7235444374646853       -790.11178105478371        175041.66938106535     
   1447.6078185415456       -4.7315977720082003       -788.98963963414144        175830.65902069950     
   1460.9265775821505       -4.7405882243050161       -787.64525256552167        176618.30427326504     
   1475.0444621651916       -4.7509243489301038       -786.06857835346341        177404.37285161851     
   1490.0094198232152       -4.7631744689201199       -784.17315987134896        178188.54601148985     
   1505.8722749407202       -4.7783817839503699       -781.77710390641437        178970.32311539626     
   1522.6869013652756       -4.7988473963262646       -778.46631094432689        179748.78942634058     
   1540.5104053753043       -4.8498594909904957       -768.84917886886774        180517.63860520945     
   1551.9174479417227       -4.8875474370320209       -759.43827286870930        181277.07687807817     
   1559.6559856187810       -4.9180990191386602       -751.22213180588494        182028.29900988404     
   1567.8588355564627       -4.9500086463735107       -746.87073817724900        182775.16974806128     
   1576.5538564904052       -4.9798882660716659       -743.88761126876477        183519.05735933004     
   1585.7705786803845       -5.0071229786655858       -741.31944801182067        184260.37680734185     
   1595.5403042017624       -5.0320191708045350       -738.85020270088660        184999.22701004273     
   1605.8962132544229       -5.0550985866950029       -736.38593098954414        185735.61294103228     
   1616.8734768502432       -5.0768600027870159       -733.90204782450496        186469.51498885677     
   1628.5093762618126       -5.0977207499683344       -731.39082253712695        187200.90581139390     
   1640.8434296380760       -5.1181778026281393       -728.79288358364920        187929.69869497753     
   1653.9175262169153       -5.1386959662753124       -726.07816786395620        188655.77686284148     
   1667.7760685904850       -5.1596731040039963       -723.22113278567201        189378.99799562714     
   1682.4661235064689       -5.1817206351568608       -720.12472198931698        190099.12271761647     
   1698.0375817174117       -5.2061562262923005       -716.54493897264751        190815.66765658912     
   1714.5433274210113       -5.2334330037890453       -712.54755620511196        191528.21521279422     
   1732.0394178668269       -5.2589468618526425       -709.22735118967944        192237.44256398390     
   1750.5852737393914       -5.2818180169008597       -706.29362744945365        192943.73619143336     
   1770.2438809643097       -5.3016724514482707       -703.74929963427508        193647.48549106764     
