 #              _____________________  _______________________             #
 #              ___  __ \__  __ \_  / / /_  /___  ____/_  ___/             #
 #              __  / / /_  /_/ /  / / /_  __/_  __/  _____ \              #
 #              _  /_/ /_  _, _// /_/ / / /_ _  /___  ____/ /              #
 #              /_____/ /_/ |_| \____/  \__/ /_____/  /____/               #
 #                                                                         #
  
 #        time                      T            heat flux [W.L-2]   in    x              directions   cumulative flux
 #-----------------------------------------------------------------------------------------------

   0.0000000000000000        5.0949000000000000        4.9675885992045625        4.9675885992045625     
   1.0000000000000000        5.0951846559901206        4.8798016609362946        9.8473902601408572     
   1.8999999999999999        5.0954275616840530        4.8070079105799950        14.654398170720853     
   2.7100000000000000        5.0956361775386316        4.7461288653068978        19.400527036027750     
   3.5200000000000000        5.0958354954346312        4.6895196306977924        24.090046666725542     
   4.3300000000000001        5.0960261616007871        4.6368447660942573        28.726891432819798     
   5.1400000000000006        5.0962087717008604        4.5877963266258934        33.314687759445690     
   5.9500000000000011        5.0963838749664108        4.5420915186226365        37.856779278068323     
   6.7600000000000016        5.0965519779786224        4.4994705624059295        42.356249840474256     
   7.5700000000000021        5.0967135481300714        4.4596947435413714        46.815944584015625     
   8.3800000000000026        5.0968690167945212        4.4225446354182045        51.238489219433831     
   9.1900000000000031        5.0970187822302675        4.3878184775967632        55.626307697030597     
   10.000000000000004        5.0971632122402761        4.3553306958426727        59.981638392873272     
   10.810000000000004        5.0973026469367353        4.3249105076799195        64.306548900553196     
   11.668600000000005        5.0974452068701241        4.2948020601250319        68.601350960678232     
   12.578716000000005        5.0975908376064485        4.2650859343869341        72.866436895065164     
   13.488832000000006        5.0977313583119894        4.2373841270849697        77.103821022150129     
   14.453554960000005        5.0978749725537815        4.2100840991931827        81.313905121343311     
   15.476161297600006        5.0980216433018715        4.1832505740252648        85.497155695368576     
   16.560124015456008        5.0981713369455663        4.1569422070449855        89.654097902413568     
   17.709124496383367        5.0983240238594796        4.1312102438630358        93.785308146276606     
   18.858124977310727        5.0984711755631524        4.1074151665586465        97.892723312835258     
   20.076065487093729        5.0986214189709234        4.0841377477033536        101.97686106053861     
   21.367082427463711        5.0987747414218205        4.0614066898820340        106.03826775042064     
   22.735560384255891        5.0989311321817352        4.0392410498515288        110.07750880027217     
   24.104038341048071        5.0990818691468407        4.0187821502398702        114.09629095051204     
   25.554624975247783        5.0992357975243721        3.9987818431937665        118.09507279370581     
   27.092246807499478        5.0993929065603334        3.9792371757811198        122.07430996948693     
   28.629868639751173        5.0995444182079437        3.9611416198501250        126.03545158933706     
   30.259747781937971        5.0996992058350372        3.9433764295176199        129.97882801885467     
   31.987419672655975        5.0998572372754261        3.9259208016971630        133.90474882055184     
   33.715091563373981        5.1000096518808755        3.9096569766426619        137.81440579719450     
   35.546423767535067        5.1001653384181758        3.8935703584166461        141.70797615561114     
   37.377755971696153        5.1003155331152614        3.8784797597020804        145.58645591531322     
   39.318968108106901        5.1004689595101578        3.8634449558252175        149.44990087113845     
   41.260180244517649        5.1006169458879569        3.8492393322476799        153.29914020338614     
   43.317865109113043        5.1007680475639310        3.8349812942929140        157.13412149767905     
   45.375549973708438        5.1009136896234057        3.8214140599248436        160.95553555760389     
   47.556695930179558        5.1010622486101500        3.8077010250626739        164.76323658266656     
   49.737841886650678        5.1012052608943188        3.7945677312619170        168.55780431392847     
   52.049856600510061        5.1013509060796629        3.7812110618385524        172.33901537576702     
   54.361871314369445        5.1014908559388621        3.7683486585586206        176.10736403432563     
   56.812606911060392        5.1016330674732977        3.7552015005674062        179.86256553489304     
   59.263342507751339        5.1017693812242717        3.7424865202429838        183.60505205513601     
   61.861122240243745        5.1019074987367032        3.7294414363902333        187.33449349152625     
   64.458901972736157        5.1020394708039607        3.7167871681259115        191.05128065965215     
   67.056681705228570        5.1021655076954460        3.7044899776879334        194.75577063734008     
   69.810328221670517        5.1022926670208433        3.6918239058971936        198.44759454323727     
   72.563974738112464        5.1024136012859866        3.6795013359556767        202.12709587919295     
   75.482840045540925        5.1025350337818178        3.6668009767618210        205.79389685595478     
   78.401705352969387        5.1026499326681840        3.6544428668115496        209.44833972276632     
   81.320570660397848        5.1027585098617321        3.6424113161981633        213.09075103896447     
   84.239435967826310        5.1028609672053635        3.6306934692350308        216.72144450819951     
   87.158301275254772        5.1029574977911842        3.6192786262680765        220.34072313446759     
   90.077166582683233        5.1030482869832436        3.6081577193870631        223.94888085385466     
   92.996031890111695        5.1031335132093689        3.5973229085056468        227.54620376236031     
   95.914897197540157        5.1032133485760216        3.5867672715138030        231.13297103387410     
   98.833762504968618        5.1032879593481617        3.5764845677930541        234.70945560166714     
   101.75262781239708        5.1033575063266570        3.5664690588658154        238.27592466053295     
   104.67149311982554        5.1034221451484427        3.5567153733918460        241.83264003392480     
   107.59035842725400        5.1034820265288454        3.5472184065042347        245.37985844042905     
   110.50922373468246        5.1035372964609760        3.5379732456179958        248.91783168604704     
   113.42808904211093        5.1035880963835831        3.5289751165529046        252.44680680259995     
   116.34695434953939        5.1036345633259872        3.5202193451695005        255.96702614776945     
   119.26581965696785        5.1036768300366209        3.5117013307470444        259.47872747851648     
   122.18468496439631        5.1037150252225700        3.5034165042980283        262.98214398281448     
   125.27868219027049        5.1037510851156744        3.4948912934821430        266.47703527629665     
   128.37267941614468        5.1037828612026850        3.4866174517213131        269.96365272801796     
   131.46667664201885        5.1038104917925846        3.4785896827226197        273.44224241074056     
   134.74631370144547        5.1038352809101690        3.4703505515536626        276.91259296229424     
   138.22272898443771        5.1038566836186057        3.4619134967560656        280.37450645905028     
   141.69914426742994        5.1038733874155184        3.4537655389198223        283.82827199797009     
   145.38414446740171        5.1038860131542663        3.4454450553316196        287.27371705330171     
   149.29024467937177        5.1038939153973715        3.4369708001429378        290.71068785344465     
   153.43071090406005        5.1038963912081643        3.4283645527438122        294.13905240618845     
   157.81960510222962        5.1038926776447813        3.4196512858185586        297.55870369200699     
   162.47183295228936        5.1038819493792484        3.4108593164836369        300.96956300849064     
   167.40319447335270        5.1038633164530163        3.4020204355790016        304.37158344406964     
   172.63043768567982        5.1038358223067490        3.3931700873615434        307.76475353143121     
   177.85768089800695        5.1038009752563038        3.3848179784414727        311.14957150987266     
   183.08492411033407        5.1037591425780189        3.3769442500412588        314.52651575991393     
   187.78944300142848        5.1037160881776806        3.3702313556302630        317.89674711554420     
   192.02351000341346        5.1036731369140620        3.3644823210273422        321.26122943657157     
   195.83417030519993        5.1036311994054042        3.3595381215417195        324.62076755811330     
   199.64483060698640        5.1035860976546878        3.3548169917971618        327.97558454991048     
   203.45549090877287        5.1035379436703989        3.3503122567829537        331.32589680669344     
   207.26615121055934        5.1034868445741779        3.3460174249467078        334.67191423164013     
   210.69574548216718        5.1034385447459449        3.3423174610177231        338.01423169265786     
   214.33111541007148        5.1033848365931274        3.3385760291949342        341.35280772185280     
   217.60294834518535        5.1033345258733700        3.3353511447305348        344.68815886658331     
   220.87478128029923        5.1032822996216494        3.3322649530335657        348.02042381961689     
   224.14661421541311        5.1032282135342699        3.3293138342512538        351.34973765386815     
   227.41844715052699        5.1031723212396498        3.3264942579935437        354.67623191186169     
   230.69028008564086        5.1031146742590954        3.3238027653479425        358.00003467720961     
   234.15842299686156        5.1030516561326458        3.3210897248160167        361.32112440202565     
   237.83465448275550        5.1029827757310438        3.3183665190185994        364.63949092104423     
   241.73145985780306        5.1029075011757987        3.3156460805900312        367.95513700163428     
   245.62826523285062        5.1028300387165526        3.3130866009638966        371.26822360259820     
   249.52507060789819        5.1027504587874883        3.3106830551854940        374.57890665778370     
   253.42187598294575        5.1026688288091675        3.3084305695170881        377.88733722730080     
   257.31868135799334        5.1025852133298555        3.3063244172877400        381.19366164458853     
   261.21548673304090        5.1024996741598985        3.3043600148310923        384.49802165941963     
   265.11229210808847        5.1024122704995474        3.3025329174910838        387.80055457691071     
   269.00909748313603        5.1023230590605158        3.3008388157111259        391.10139339262184     
   272.90590285818359        5.1022320941815771        3.2992735312098969        394.40066692383175     
   276.80270823323116        5.1021394279385088        3.2978330132389413        397.69849993707066     
   280.69951360827872        5.1020451102486648        3.2965133349226670        400.99501327199334     
   284.59631898332628        5.1019491889704316        3.2953106896892184        404.29032396168259     
   288.49312435837385        5.1018517099978364        3.2942213877854614        407.58454534946804     
   292.38992973342141        5.1017527173505561        3.2932418528707186        410.87778720233877     
   296.28673510846897        5.1016522532595481        3.2923686187016972        414.17015582104045     
   300.18354048351654        5.1015503582485300        3.2915983258967487        417.46175414693721     
   304.08034585856410        5.1014470712115285        3.2909277187803214        420.75268186571753     
   307.97715123361166        5.1013424294866798        3.2903536423081605        424.04303550802570     
   311.87395660865923        5.1012364689264871        3.2898730390732842        427.33290854709895     
   315.77076198370679        5.1011292239647039        3.2894829463870652        430.62239149348602     
   319.66756735875435        5.1010207276800204        3.2891804934385562        433.91157198692457     
   323.56437273380192        5.1009110118567218        3.2889628985235642        437.20053488544812     
   327.46117810884948        5.1008001070424474        3.2888274663533785        440.48936235180150     
   331.35798348389704        5.1006880426032248        3.2887715854298687        443.77813393723136     
   335.25478885894461        5.1005748467758991        3.2887927254937490        447.06692666272511     
   339.15159423399217        5.1004605467180921        3.2888884350406236        450.35581509776574     
   343.04839960903973        5.1003451685558128        3.2890563389034289        453.64487143666918     
   346.94520498408730        5.1002287374288482        3.2892941359037793        456.93416557257297     
   350.84201035913486        5.1001112775340225        3.2895995965635043        460.22376516913647     
   354.73881573418242        5.0999928121664553        3.2899705608825602        463.51373573001905     
   358.63562110922999        5.0998733637588902        3.2904049361807859        466.80414066619983     
   362.53242648427755        5.0997529539192179        3.2909006949956003        470.09504136119546     
   366.42923185932511        5.0996316034662659        3.2914558730393013        473.38649723423475     
   370.32603723437268        5.0995093324639269        3.2920685672219170        476.67856580145667     
   374.22284260942024        5.0993861602537516        3.2927369337172658        479.97130273517394     
   378.11964798446780        5.0992621054860114        3.2934591861007929        483.26476192127473     
   382.01645335951537        5.0991371861493793        3.2942335935263811        486.55899551480110     
   385.91325873456293        5.0990114195992442        3.2950584789658888        489.85405399376697     
   389.81006410961049        5.0988848225847390        3.2959322174967145        493.14998621126369     
   393.70686948465806        5.0987574112745477        3.2968532346424690        496.44683944590616     
   397.60367485970562        5.0986292012815557        3.2978200047580204        499.74465945066419     
   401.50048023475318        5.0985002075500416        3.2988310519430684        503.04349050260726     
   405.63109393230360        5.0983626112059923        3.2999508031948035        506.34344130580206     
   409.34864626009897        5.0982380875774895        3.3009962897939671        509.64443759559600     
   413.06619858789435        5.0981128888636107        3.3020783175927062        512.94651591318870     
   416.78375091568972        5.0979870265253684        3.3031957516559225        516.24971166484465     
   420.50130324348510        5.0978605116661670        3.3043474904288557        519.55405915527353     
   424.21885557128047        5.0977333550460608        3.3055324646998976        522.85959161997346     
   427.93640789907585        5.0976055670953873        3.3067496366043758        526.16634125657788     
   431.65396022687122        5.0974771579278313        3.3079979986520609        529.47433925522989     
   435.37151255466659        5.0973481373529488        3.3092765727826547        532.78361582801256     
   439.08906488246197        5.0972185148881426        3.3105844094574390        536.09420023746998     
   442.80661721025734        5.0970882997701539        3.3119205867684354        539.40612082423843     
   446.52416953805272        5.0969575009660604        3.3132842095814827        542.71940503381995     
   450.24172186584809        5.0968261271838191        3.3146744087035938        546.03407944252353     
   452.62095535563714        5.0967418146925079        3.3155747979100934        549.34965424043367     
   455.00018884542618        5.0966572711295868        3.3164856297642711        552.66613987019798     
   457.14149898623634        5.0965809962980577        3.3173136804370080        555.98345355063498     
   459.41128773549508        5.0964999382900329        3.3182005575502669        559.30165410818529     
   461.81726380970935        5.0964137867260142        3.3191507058283385        562.62080481401358     
   464.36759844837650        5.0963222100756695        3.3201689138137152        565.94097372782733     
   467.07095316536368        5.0962248541344417        3.3212603383501804        569.26223406617748     
   469.93650916537007        5.0961213403859977        3.3224305301883366        572.58466459636577     
   472.97399852537683        5.0960112642420405        3.3236854606461836        575.90835005701194     
   476.19373724698403        5.0958941931504258        3.3250315492164373        579.23338160622836     
   479.60666029188764        5.0957696645619022        3.3264756919871190        582.55985729821543     
   483.22435871948545        5.0956371837452048        3.3280252906871564        585.88788258890258     
   487.05911905273916        5.0954962214395145        3.3296882821461646        589.21757087104879     
   491.12396500598811        5.0953462113326538        3.3314731678880896        592.54904403893693     
   495.43270171643195        5.0951865473526619        3.3333890435332325        595.88243308247013     
   499.99996262950242        5.0950165807596690        3.3354456276131561        599.21787871008326     
   504.84125919735715        5.0948356170242475        3.3376532893479123        602.55553199943120     
   509.97303355928312        5.0946429124776920        3.3400230748464166        605.89555507427758     
   515.41271438292472        5.0944376707189418        3.3425667311289740        609.23812180540654     
   521.17877605598483        5.0942190387622110        3.3452967272566196        612.58341853266313     
   527.29080142942848        5.0939861029087048        3.3482262718043319        615.93164480446751     
   533.76954832527872        5.0937378843253418        3.3513693257669241        619.28301413023439     
   540.63702003488004        5.0934733343129652        3.3547406099249830        622.63775474015938     
   547.91654004705742        5.0931913294799021        3.3583556061775388        625.99611034633688     
   555.19606005923481        5.0929077753061982        3.3620090832256375        629.35811942956252     
   562.47558007141220        5.0926227032894289        3.3656982342118225        632.72381766377430     
   569.75510008358958        5.0923361437824086        3.3694203920883314        636.09323805586268     
   577.03462009576697        5.0920481260674215        3.3731730215690536        639.46641107743176     
   584.31414010794435        5.0917586784248714        3.3769537115733774        642.84336478900514     
   591.59366012012174        5.0914678281967563        3.3807601681280168        646.22412495713320     
   598.87318013229913        5.0911756018453858        3.3845902076974435        649.60871516483064     
   606.15270014447651        5.0908820250076765        3.3884417509180396        652.99715691574863     
