 #              _____________________  _______________________             #
 #              ___  __ \__  __ \_  / / /_  /___  ____/_  ___/             #
 #              __  / / /_  /_/ /  / / /_  __/_  __/  _____ \              #
 #              _  /_/ /_  _, _// /_/ / / /_ _  /___  ____/ /              #
 #              /_____/ /_/ |_| \____/  \__/ /_____/  /____/               #
 #                                                                         #
  
 #        time                      T            heat flux [W.L-2]   in    x              directions   cumulative flux
 #-----------------------------------------------------------------------------------------------

   0.0000000000000000        4.6891999999999996       -6.9459274493888401        6.9459274493888401     
   1.0000000000000000        4.3845957823835517       -101.02598311676316        107.97191056615199     
   1.8999999999999999        4.1326322958144175       -176.74058549385941        284.71249606001140     
   2.7100000000000000        3.9222046424487296       -238.29430490792603        523.00680096793747     
   3.5200000000000000        3.7261371183459562       -294.03013015441644        817.03693112235396     
   4.3300000000000001        3.5432050719868244       -344.47800302039855        1161.5149341427525     
   5.1400000000000006        3.3722928262974294       -390.12397198341534        1551.6389061261680     
   5.9500000000000011        3.2123846651954322       -431.41235669154440        1983.0512628177123     
   6.7600000000000016        3.0625563032908643       -468.74829829688929        2451.7995611146016     
   7.5700000000000021        2.9219668941431820       -502.50048838480154        2954.3000494994030     
   8.3800000000000026        2.7898516009428809       -533.00393858523444        3487.3039880846372     
   9.1900000000000031        2.6655147316189893       -560.56270086883922        4047.8666889534766     
   10.000000000000004        2.5483234255642477       -585.45248164299846        4633.3191705964746     
   10.810000000000004        2.4376903301080000       -607.92602258896852        5241.2451931854430     
   11.668600000000005        2.3270287845275446       -629.34495465528414        5870.5901478407268     
   12.578716000000005        2.2165286219352973       -649.62200529555139        6520.2121531362782     
   13.488832000000006        2.1123965867626966       -667.67148690100021        7187.8836400372784     
   14.453554960000005        2.0083706241778856       -684.62412674631082        7872.5077667835894     
   15.476161297600006        1.9045923894436840       -700.41886201223110        8572.9266287958199     
   16.560124015456008        1.8011898197170140       -715.00472808705763        9287.9313568828766     
   17.709124496383367        1.6982733461956607       -728.34492958727026        10016.276286470147     
   18.858124977310727        1.6015875644423339       -739.76295369645641        10756.039240166603     
   20.076065487093729        1.5051920506839980       -750.05471240484565        11506.093952571449     
   21.367082427463711        1.4091582470917081       -759.20353663061610        12265.297489202065     
   22.735560384255891        1.3135382247175897       -767.20687885459938        13032.504368056663     
   24.104038341048071        1.2236659888616179       -773.68600956554405        13806.190377622208     
   25.554624975247783        1.1339430594192546       -779.17033191822850        14585.360709540437     
   27.092246807499478        1.0443965926229075       -783.67072535416696        15369.031434894603     
   28.629868639751173       0.96004080907992606       -786.99188368348530        16156.023318578089     
   30.259747781937971       0.87559215505701582       -789.47771563643107        16945.501034214521     
   31.987419672655975       0.79106870822942299       -791.14403612013109        17736.645070334653     
   33.715091563373981       0.71122957068301274       -791.93886926786206        18528.583939602515     
   35.546423767535067       0.63106885911987676       -792.04834686423283        19320.632286466749     
   37.377755971696153       0.55513033317798532       -791.49231348564069        20112.124599952389     
   39.318968108106901       0.47866588821844858       -790.36178628128073        20902.486386233672     
   41.260180244517649       0.40603783931220133       -788.73287046871508        21691.219256702385     
   43.317865109113043       0.33271812668042050       -786.61950987911621        22477.838766581503     
   45.375549973708438       0.26291540477537401       -784.14163280362391        23261.980399385127     
   47.556695930179558       0.19228927316116684       -781.25135169068608        24043.231751075815     
   49.737841886650678       0.12491724588921874       -778.10260470686694        24821.334355782681     
   52.049856600510061        5.6619150534577500E-002  -774.59836721045519        25595.932722993137     
   54.361871314369445       -8.6405349830495637E-003  -770.91892324187393        26366.851646235009     
   56.812606911060392       -7.4904711481704189E-002  -766.92854293337473        27133.780189168385     
   59.263342507751339      -0.13830744693644287       -1021.3463221437695        28155.126511312155     
   61.861122240243745      -0.20277338195885364       -1145.0592708208685        29300.185782133023     
   64.458901972736157      -0.26449045405881566       -1291.4205486513144        30591.606330784336     
   67.056681705228570      -0.32372714532448582       -1432.0089617108852        32023.615292495222     
   69.810328221670517      -0.38413781017515702       -1523.6222572908541        33547.237549786078     
   72.563974738112464      -0.44215198755264273       -1506.5526988138183        35053.790248599893     
   75.482840045540925      -0.43639426720072483       -1494.9849380746648        36548.775186674560     
   78.401705352969387      -0.43354777471473882       -1474.3029605249958        38023.078147199558     
   81.320570660397848      -0.43288441953489737       -1447.7241125227574        39470.802259722317     
   84.239435967826310      -0.43381252233715467       -1417.4744547657390        40888.276714488056     
   87.158301275254772      -0.43587493858172344       -1385.0373874819820        42273.314101970042     
   90.077166582683233      -0.43872762747703742       -1351.3906465286234        43624.704748498662     
   92.996031890111695      -0.44211722595010111       -1317.1755402591193        44941.880288757784     
   95.914897197540157      -0.44586080768106240       -1282.8103763152642        46224.690665073045     
   98.833762504968618      -0.44982898306371466       -1248.5648226806936        47473.255487753740     
   101.75262781239708      -0.45393242784900406       -1214.6087583077385        48687.864246061479     
   104.67149311982554      -0.45811145604867504       -1181.0448913380274        49868.909137399503     
   107.59035842725400      -0.46232810373648181       -1147.9310497306089        51016.840187130110     
   110.50922373468246      -0.46656019652555364       -1115.2957923108529        52132.135979440965     
   113.42808904211093      -0.47079694232498254       -1083.1495838545391        53215.285563295503     
   116.34695434953939      -0.47503567620092269       -978.70849243529278        54193.994055730793     
   119.26581965696785      -0.47927946498380625       -865.02509299094709        55059.019148721738     
   122.18468496439631      -0.48439302349657515       -771.11732288139626        55830.136471603131     
   125.27868219027049      -0.48890280777809847       -704.69493366085885        56534.831405263991     
   128.37267941614468      -0.49344257574727723       -654.02065943163916        57188.852064695631     
   131.46667664201885      -0.49871449608368312       -611.98439937732530        57800.836464072956     
   134.74631370144547      -0.50432998204213619       -578.20888104892720        58379.045345121885     
   138.22272898443771      -0.50966056522064873       -552.67064703378253        58931.715992155667     
   141.69914426742994      -0.51565139242022673       -531.47133078942602        59463.187322945094     
   145.38414446740171      -0.52209627957431226       -514.04989706973890        59977.237220014831     
   149.29024467937177      -0.52905060944171578       -499.67561453918927        60476.912834554023     
   153.43071090406005      -0.53658123061928142       -487.72723352581068        60964.640068079832     
   157.81960510222962      -0.54476718282368575       -477.67792365825841        61442.317991738091     
   162.47183295228936      -0.55370016597166871       -469.08167153635634        61911.399663274446     
   167.40319447335270      -0.56348464909942209       -461.56405682411139        62372.963720098560     
   172.63043768567982      -0.57441630767471619       -454.54267968850968        62827.506399787067     
   177.85768089800695      -0.58589629193177939       -448.45285498273353        63275.959254769798     
   183.08492411033407      -0.59967462483377088       -442.04175119683850        63718.001005966638     
   187.78944300142848      -0.61804492060307159       -482.76025113218634        64200.761257098828     
   192.02351000341346      -0.63914166209799617       -463.40117629166571        64664.162433390491     
   195.83417030519993      -0.66094675835233008       -450.46796751283665        65114.630400903327     
   199.64483060698640      -0.68619350803913826       -441.79987064112100        65556.430271544450     
   203.45549090877287      -0.71507680654344052       -437.33510643984096        65993.765377984295     
   207.26615121055934      -0.73496115204489976       -439.91526996869288        66433.680647952991     
   210.69574548216718      -0.75291664588088125       -442.70764955991075        66876.388297512909     
   214.33111541007148      -0.75883701456632546       -446.44525883357056        67322.833556346479     
   217.60294834518535      -0.76442814588481833       -449.25440083132497        67772.087957177806     
   220.87478128029923      -0.77019194186785989       -451.68835290303099        68223.776310080837     
   224.14661421541311      -0.77606282799092174       -453.86288682920116        68677.639196910037     
   227.41844715052699      -0.78198903108457118       -455.87271682573487        69133.511913735769     
   230.69028008564086      -0.78810953368838110       -457.49195248517276        69591.003866220941     
   234.15842299686156      -0.79458030965932480       -459.18583832727313        70050.189704548218     
   237.83465448275550      -0.80139075191961739       -461.01963757022691        70511.209342118440     
   241.73145985780306      -0.80819162641273135       -463.66213816973851        70974.871480288173     
   245.62826523285062      -0.81487234266231767       -466.45321104588135        71441.324691334055     
   249.52507060789819      -0.82139987484439225       -469.45473346501598        71910.779424799068     
   253.42187598294575      -0.82774672436212160       -472.72004480601612        72383.499469605085     
   257.31868135799334      -0.83389008427909472       -476.29652593058694        72859.795995535678     
   261.21548673304090      -0.83981134807784175       -480.22756146348360        73340.023556999164     
   265.11229210808847      -0.84549582433194792       -484.55399042580706        73824.577547424968     
   269.00909748313603      -0.85093255888257335       -489.31513902716949        74313.892686452135     
   272.90590285818359      -0.85611419472775097       -494.54951238735362        74808.442198839490     
   276.80270823323116      -0.86103682239269130       -500.29520450905864        75308.737403348554     
   280.69951360827872      -0.86569963488867452       -506.59013984226021        75815.327543190811     
   284.59631898332628      -0.87010473937974642       -513.47200051508889        76328.799543705900     
   288.49312435837385      -0.87425738069806624       -520.97773338049285        76849.777277086396     
   292.38992973342141      -0.87816516135980072       -529.14346008189864        77378.920737168301     
   296.28673510846897      -0.88183769666007372       -538.00387678490677        77916.924613953204     
   300.18354048351654      -0.88528624310001580       -547.59153567006797        78464.516149623276     
   304.08034585856410      -0.88852332979522120       -557.93597785187569        79022.452127475146     
   307.97715123361166      -0.89156240733881209       -569.06272604599747        79591.514853521148     
   311.87395660865923      -0.89441752560263843       -580.99214968603974        80172.507003207182     
   315.77076198370679      -0.89710304856755674       -593.73822158040855        80766.245224787592     
   319.66756735875435      -0.89963341096545979       -607.30719339070220        81373.552418178297     
   323.56437273380192      -0.90202291861025052       -621.69622683916566        81995.248645017462     
   327.46117810884948      -0.90428559195703195       -636.89202805655441        82632.140673074013     
   331.35798348389704      -0.90643505070265362       -652.86954309037981        83285.010216164388     
   335.25478885894461      -0.90848443608843443       -669.59078231505350        83954.600998479436     
   339.15159423399217      -0.91044636690331959       -687.00384914688743        84641.604847626324     
   343.04839960903973      -0.91233292490965856       -705.04225277382761        85346.647100400151     
   346.94520498408730      -0.91415566542145388       -723.62458426257569        86070.271684662730     
   350.84201035913486      -0.91592564896420947       -742.65462924121164        86812.926313903939     
   354.73881573418242      -0.91765349026061183       -762.02197751599044        87574.948291419933     
   358.63562110922999      -0.91934942115826124       -781.60317010640017        88356.551461526338     
   362.53242648427755      -0.92102336450089051       -801.26339755103834        89157.814859077378     
   366.42923185932511      -0.92268501631247613       -820.85873099094692        89978.673590068327     
   370.32603723437268      -0.92434393399357329       -840.23883129269723        90818.912421361019     
   374.22284260942024      -0.92600962850799984       -859.25004385219324        91678.162465213216     
   378.11964798446780      -0.92769165875762172       -877.73875074948933        92555.901215962702     
   382.01645335951537      -0.92939972649963298       -895.55482085493111        93451.456036817632     
   385.91325873456293      -0.93114377025363404       -912.55497544060927        94364.011012258241     
   389.81006410961049      -0.93293405667768303       -928.60587446237435        95292.616886720614     
   393.70686948465806      -0.93478126787027260       -943.58672879829737        96236.203615518913     
   397.60367485970562      -0.93780460220747541       -949.95163588114906        97186.155251400065     
   401.50048023475318      -0.94107435253792560       -954.68263623792654        98140.837887637987     
   405.63109393230360      -0.94822766710162998       -937.50978306826642        99078.347670706251     
   409.34864626009897      -0.95596708456328083       -915.82311034423390        99994.170781050489     
   413.06619858789435      -0.96518394371877014       -888.34770239432180        100882.51848344482     
   416.78375091568972      -0.97589487989458701       -856.54532967751675        101739.06381312234     
   420.50130324348510      -0.98814319714972498       -822.02053746351964        102561.08435058586     
   424.21885557128047       -1.0007349178125988       -796.89097196769069        103357.97532255355     
   427.93640789907585       -1.0141893458402160       -772.97019366003974        104130.94551621360     
   431.65396022687122       -1.0286866484778943       -750.71210537950003        104881.65762159310     
   435.37151255466659       -1.0441798746537514       -730.69312842015881        105612.35075001325     
   439.08906488246197       -1.0606092383688333       -713.27925355002344        106325.63000356327     
   442.80661721025734       -1.0778991763963688       -698.65631247982378        107024.28631604310     
   446.52416953805272       -1.0959556245604847       -686.87054100002786        107711.15685704313     
   450.24172186584809       -1.1146635143367636       -677.86845129528820        108389.02530833842     
   452.62095535563714       -1.1268322008707699       -673.22314979901296        109062.24845813743     
   455.00018884542618       -1.1294808305149826       -678.40007869435090        109740.64853683178     
   457.14149898623634       -1.1319165191760110       -682.84445354005197        110423.49299037183     
   459.41128773549508       -1.1345906402325674       -687.24196768327022        111110.73495805509     
   461.81726380970935       -1.1375193320607091       -691.57762554359510        111802.31258359869     
   464.36759844837650       -1.1407197027177376       -695.83667753741440        112498.14926113610     
   467.07095316536368       -1.1442097887788361       -700.00827030650453        113198.15753144260     
   469.93650916537007       -1.1480084722687647       -704.07963709241983        113902.23716853502     
   472.97399852537683       -1.1521353422213225       -708.04240360473500        114610.27957213976     
   476.19373724698403       -1.1566104842010285       -711.89505827711366        115322.17463041686     
   479.60666029188764       -1.1614541774474960       -715.64413632734284        116037.81876674421     
   483.22435871948545       -1.1666864752278485       -719.30687829436715        116757.12564503858     
   487.05911905273916       -1.1723266396804080       -722.91429476292387        117480.03993980151     
   491.12396500598811       -1.1783923982310838       -726.51462587608182        118206.55456567759     
   495.43270171643195       -1.1848989851246907       -730.17716560214672        118936.73173127974     
   499.99996262950242       -1.1918579296619292       -733.99640323459982        119670.72813451434     
   504.84125919735715       -1.1992755538641733       -738.09642140062169        120408.82455591497     
   509.97303355928312       -1.2071511390134004       -742.63578241504695        121151.46033833001     
   515.41271438292472       -1.2154746791491660       -747.81467359196574        121899.27501192199     
   521.17877605598483       -1.2242245966829297       -753.87403026145182        122653.14904218343     
   527.29080142942848       -1.2333649696773046       -761.10283669519345        123414.25187887863     
   533.76954832527872       -1.2428427415918986       -769.84250436434127        124184.09438324296     
   540.63702003488004       -1.2525851701565809       -780.49005806053356        124964.58444130349     
   547.91654004705742       -1.2617485165298321       -796.12989551942576        125760.71433682292     
   555.19606005923481       -1.2703161400530014       -813.76457066712737        126574.47890749005     
   562.47558007141220       -1.2782393624061077       -833.42351859550615        127407.90242608555     
   569.75510008358958       -1.2853003272375070       -857.09183146147166        128264.99425754702     
   577.03462009576697       -1.2914556928200056       -882.26643502773766        129147.26069257475     
   584.31414010794435       -1.2967998800597564       -909.13367767930333        130056.39437025406     
   591.59366012012174       -1.3013890445049363       -937.43261434154226        130993.82698459559     
   598.87318013229913       -1.3052842457258740       -966.81357594631083        131960.64056054191     
   606.15270014447651       -1.3085513308270258       -996.84594295811121        132957.48650350003     
