 #              _____________________  _______________________             #
 #              ___  __ \__  __ \_  / / /_  /___  ____/_  ___/             #
 #              __  / / /_  /_/ /  / / /_  __/_  __/  _____ \              #
 #              _  /_/ /_  _, _// /_/ / / /_ _  /___  ____/ /              #
 #              /_____/ /_/ |_| \____/  \__/ /_____/  /____/               #
 #                                                                         #
  
 #        time                      T            heat flux [W.L-2]   in    x              directions   cumulative flux
 #-----------------------------------------------------------------------------------------------

   0.0000000000000000        4.9545000000000003        6.9459472568559146        6.9459472568559146     
   1.0000000000000000        4.9541206860903779        7.0629571855713476        14.008904442427262     
   1.8999999999999999        4.9537970135541221        7.1599809725181327        21.168885414945393     
   2.7100000000000000        4.9535190378772489        7.2411218411662883        28.410007256111683     
   3.5200000000000000        4.9532534562419457        7.3165684679294865        35.726575724041169     
   4.3300000000000001        4.9529994063595764        7.3867667877412675        43.113342511782434     
   5.1400000000000006        4.9527560931396115        7.4521257840498354        50.565468295832268     
   5.9500000000000011        4.9525227831281047        7.5130206245702675        58.078488920402535     
   6.7600000000000016        4.9522987994179726        7.5697955289052681        65.648284449307809     
   7.5700000000000021        4.9520835169907338        7.6227663909614805        73.271050840269282     
   8.3800000000000026        4.9518763584528100        7.6722231771360594        80.943274017405344     
   9.1900000000000031        4.9516767901326588        7.7184321194565744        88.661706136861923     
   10.000000000000004        4.9514843185078972        7.7616377212308727        96.423343858092792     
   10.810000000000004        4.9512984859487466        7.8020648442835157        104.22540870237631     
   11.668600000000005        4.9511084630344238        7.8420399863425301        112.06744868871884     
   12.578716000000005        4.9509143113185354        7.8814453255783938        119.94889401429724     
   13.488832000000006        4.9507269266553564        7.9181242334516524        127.86701824774889     
   14.453554960000005        4.9505353544991317        7.9542007562080643        135.82121900395694     
   15.476161297600006        4.9503396198331382        7.9895720173744813        143.81079102133143     
   16.560124015456008        4.9501397350498921        8.0241397441274547        151.83493076545889     
   17.709124496383367        4.9499356971349480        8.0578113493607120        159.89274211481961     
   18.858124977310727        4.9497388704961223        8.0887962126002950        167.98153832741991     
   20.076065487093729        4.9495376641689113        8.1189207139297075        176.10045904134961     
   21.367082427463711        4.9493320139261430        8.1481119508510744        184.24857099220068     
   22.735560384255891        4.9491218302299034        8.1763042617595172        192.42487525396021     
   24.104038341048071        4.9489187652536186        8.2020354669341167        200.62691072089433     
   25.554624975247783        4.9487107865460400        8.2268462969484109        208.85375701784275     
   27.092246807499478        4.9484977268675872        8.2506885464417863        217.10444556428453     
   28.629868639751173        4.9482913777605075        8.2723448735259630        225.37679043781048     
   30.259747781937971        4.9480794620169988        8.2931243175739979        233.66991475538447     
   31.987419672655975        4.9478617236046123        8.3129923455865971        241.98290710097106     
   33.715091563373981        4.9476501998239035        8.3309501353480826        250.31385723631914     
   35.546423767535067        4.9474322540178584        8.3480928536777608        258.66195008999688     
   37.377755971696153        4.9472199457096968        8.3635618847194060        267.02551197471627     
   39.318968108106901        4.9470005677061817        8.3783022080734142        275.40381418278969     
   41.260180244517649        4.9467862695541376        8.3915784701918685        283.79539265298155     
   43.317865109113043        4.9465642007181181        8.4042032437870517        292.19959589676859     
   45.375549973708438        4.9463466705031358        8.4155497582049659        300.61514565497356     
   47.556695930179558        4.9461206099979025        8.4263143294715697        309.04145998444511     
   49.737841886650678        4.9458985606641299        8.4359659451941802        317.47742592963931     
   52.049856600510061        4.9456671577618332        8.4450993266268348        325.92252525626617     
   54.361871314369445        4.9454392506135889        8.4532678248599762        334.37579308112612     
   56.812606911060392        4.9452010986136363        8.4609779108497136        342.83677099197581     
   59.263342507751339        4.9449659384369982        8.4678569356015210        351.30462792757731     
   61.861122240243745        4.9447195708765577        8.4743353306036635        359.77896325818097     
   64.458901972736157        4.9444757031102045        8.4801047323628591        368.25906799054383     
   67.056681705228570        4.9442339809166205        8.4852558728227248        376.74432386336656     
   69.810328221670517        4.9439797959069613        8.4901148655293053        385.23443872889584     
   72.563974738112464        4.9437273289367809        8.4944539966317425        393.72889272552760     
   75.482840045540925        4.9434613089673025        8.4985530638724267        402.22744578940001     
   78.401705352969387        4.9431965937494065        8.5022244398545137        410.72967022925451     
   81.320570660397848        4.9429329308307448        8.5055313638181289        419.23520159307265     
   84.239435967826310        4.9426701011667227        8.5085289693302801        427.74373056240290     
   87.158301275254772        4.9424079149477587        8.5112654075627461        436.25499596996565     
   90.077166582683233        4.9421462079854761        8.5137827906748242        444.76877876064049     
   92.996031890111695        4.9418848385725251        8.5161179889137699        453.28489674955426     
   95.914897197540157        4.9416236847460837        8.5183033078663293        461.80320005742061     
   98.833762504968618        4.9413626418971530        8.5203670668354086        470.32356712425604     
   101.75262781239708        4.9411016206774461        8.5223340950583708        478.84590121931444     
   104.67149311982554        4.9408405451634270        8.5242261592240940        487.37012737853854     
   107.59035842725400        4.9405793512433354        8.5260623331860277        495.89618971172456     
   110.50922373468246        4.9403179851981802        8.5278593187636620        504.42404903048822     
   113.42808904211093        4.9400564024519129        8.5296317249537701        512.95368075544195     
   116.34695434953939        4.9397945664695087        8.5313923115931249        521.48507306703505     
   119.26581965696785        4.9395324477845950        8.5331522025337083        530.01822526956880     
   122.18468496439631        4.9392700229607662        8.5349210187821338        538.55314628835094     
   125.27868219027049        4.9389914881894601        8.5368160206387085        547.08996230898970     
   128.37267941614468        4.9387125738571882        8.5387395137989177        555.62870182278857     
   131.46667664201885        4.9384332699670033        8.5406986657042303        564.16940048849278     
   134.74631370144547        4.9381367643858214        8.5428227348061867        572.71222322329902     
   138.22272898443771        4.9378219694307433        8.5451346534375343        581.25735787673659     
   141.69914426742994        4.9375066788152520        8.5475125478033824        589.80487042454001     
   145.38414446740171        4.9371719244084966        8.5501127475137579        598.35498317205372     
   149.29024467937177        4.9368164886645189        8.5529632889367342        606.90794646099050     
   153.43071090406005        4.9364390840109982        8.5560949396441632        615.46404140063464     
   157.81960510222962        4.9360383507675980        8.5595412350804576        624.02358263571512     
   162.47183295228936        4.9356128553665508        8.5633384656584930        632.58692110137360     
   167.40319447335270        4.9351610889359465        8.5675256037914878        641.15444670516513     
   172.63043768567982        4.9346814669146122        8.5721444390477490        649.72659114421288     
   177.85768089800695        4.9342011802184800        8.5769399301689511        658.30353107438179     
   183.08492411033407        4.9337203161072996        8.5819071940385410        666.88543826842033     
   187.78944300142848        4.9332871347484772        8.5865126018094777        675.47195087022976     
   192.02351000341346        4.9328969912263831        8.5907632248326511        684.06271409506246     
   195.83417030519993        4.9325456688599179        8.5946716981007860        692.65738579316326     
   199.64483060698640        4.9321941868395669        8.5986601656825066        701.25604595884579     
   203.45549090877287        4.9318425782955764        8.6027255727136094        709.85877153155934     
   207.26615121055934        4.9314908758550917        8.6068647570935823        718.46563628865295     
   210.69574548216718        4.9311742909456608        8.6106472883333609        727.07628357698627     
   214.33111541007148        4.9308386792526493        8.6147185422302517        735.69100211921648     
   217.60294834518535        4.9305366225510685        8.6184304794662037        744.30943259868263     
   220.87478128029923        4.9302345788600723        8.6221880978723799        752.93162069655500     
   224.14661421541311        4.9299325669638865        8.6259892607539488        761.55760995730896     
   227.41844715052699        4.9296306052296375        8.6298318293729483        770.18744178668192     
   230.69028008564086        4.9293287116574636        8.6337135441120978        778.82115533079400     
   234.15842299686156        4.9290088018689060        8.6378697462025684        787.45902507699657     
   237.83465448275550        4.9286698310272685        8.6423190538350561        796.10134413083165     
   241.73145985780306        4.9283106995927408        8.6470811141932380        804.74842524502492     
   245.62826523285062        4.9279517728278792        8.6518853258860808        813.40031057091096     
   249.52507060789819        4.9275930767526299        8.6567282664893828        822.05703883740034     
   253.42187598294575        4.9272346365022361        8.6616065735105892        830.71864541091088     
   257.31868135799334        4.9268764763358721        8.6665169494273968        839.38516236033831     
   261.21548673304090        4.9265186196476316        8.6714561659066050        848.05661852624496     
   265.11229210808847        4.9261610889794856        8.6764210672916722        856.73303959353666     
   269.00909748313603        4.9258039060358634        8.6814085734443118        865.41444816698095     
   272.90590285818359        4.9254470916995636        8.6864156820107574        874.10086384899171     
   276.80270823323116        4.9250906660487388        8.6914394701742737        882.79230331916597     
   280.69951360827872        4.9247346483747387        8.6964770959538438        891.48878041511978     
   284.59631898332628        4.9243790572006070        8.7015257990984534        900.19030621421825     
   288.49312435837385        4.9240239103000754        8.7065829016278471        908.89688911584608     
   292.38992973342141        4.9236692247169112        8.7116458080516743        917.60853492389776     
   296.28673510846897        4.9233150167844801        8.7167120053133633        926.32524692921118     
   300.18354048351654        4.9229613021454357        8.7217790624858615        935.04702599169707     
   304.08034585856410        4.9226080957714320        8.7268446302503087        943.77387062194737     
   307.97715123361166        4.9222554119827731        8.7319064401881601        952.50577706213551     
   311.87395660865923        4.9219032644679492        8.7369623039045710        961.24273936604004     
   315.77076198370679        4.9215516663029870        8.7420101120096181        969.98474947804971     
   319.66756735875435        4.9212006299705715        8.7470478329739532        978.73179731102368     
   323.56437273380192        4.9208501673788945        8.7520735118793649        987.48387082290310     
   327.46117810884948        4.9205002898801951        8.7570852690776775        996.24095609198082     
   331.35798348389704        4.9201510082889728        8.7620812987696599        1005.0030373907505     
   335.25478885894461        4.9198023328998355        8.7670598675239759        1013.7700972582744     
   339.15159423399217        4.9194542735049707        8.7720193127438240        1022.5421165710183     
   343.04839960903973        4.9191068394112252        8.7769580410865959        1031.3190746121049     
   346.94520498408730        4.9187600394567825        8.7818745268538390        1040.1009491389589     
   350.84201035913486        4.9184138820274264        8.7867673103560175        1048.8877164493149     
   354.73881573418242        4.9180683750723855        8.7916349962585816        1057.6793514455735     
   358.63562110922999        4.9177235261197580        8.7964762519189446        1066.4758276974924     
   362.53242648427755        4.9173793422915146        8.8012898057163618        1075.2771175032087     
   366.42923185932511        4.9170358303180741        8.8060744453843043        1084.0831919485931     
   370.32603723437268        4.9166929965524657        8.8108290163453322        1092.8940209649384     
   374.22284260942024        4.9163508469840682        8.8155524200566830        1101.7095733849951     
   378.11964798446780        4.9160093872519361        8.8202436123685075        1110.5298169973637     
   382.01645335951537        4.9156686226577184        8.8249016018984854        1119.3547185992622     
   385.91325873456293        4.9153285581781798        8.8295254484210837        1128.1842440476833     
   389.81006410961049        4.9149891984773202        8.8341142612847534        1137.0183583089679     
   393.70686948465806        4.9146505479181046        8.8386671978471831        1145.8570255068150     
   397.60367485970562        4.9143126105738215        8.8431834619373593        1154.7002089687523     
   401.50048023475318        4.9139753914329170        8.8476621509758093        1163.5478711197281     
   405.63109393230360        4.9136187477103421        8.8523668331080980        1172.4002379528363     
   409.34864626009897        4.9132984271434426        8.8565657291348785        1181.2568036819712     
   413.06619858789435        4.9129787679894941        8.8607287636184395        1190.1175324455896     
   416.78375091568972        4.9126597726799499        8.8648554252689511        1198.9823878708585     
   420.50130324348510        4.9123414434555910        8.8689452342779678        1207.8513331051365     
   424.21885557128047        4.9120237823736179        8.8729977412641734        1216.7243308464008     
   427.93640789907585        4.9117067913145176        8.8770125262408648        1225.6013433726416     
   431.65396022687122        4.9113904719886916        8.8809891976074180        1234.4823325702491     
   435.37151255466659        4.9110748259428600        8.8849273911684836        1243.3672599614176     
   439.08906488246197        4.9107598545662565        8.8888267691734217        1252.2560867305911     
   442.80661721025734        4.9104455590966092        8.8926870193809542        1261.1487737499720     
   446.52416953805272        4.9101319406259112        8.8965078541505935        1270.0452816041225     
   450.24172186584809        4.9098190001060091        8.9002890095512974        1278.9455706136737     
   452.62095535563714        4.9096189960884562        8.9026926307720959        1287.8482632444459     
   455.00018884542618        4.9094192701902823        8.9050798725257163        1296.7533431169716     
   457.14149898623634        4.9092397426950454        8.9072150397103638        1305.6605581566819     
   459.41128773549508        4.9090496969937201        8.9094633123668601        1314.5700214690487     
   461.81726380970935        4.9088485334678298        8.9118295694275638        1323.4818510384762     
   464.36759844837650        4.9086356204135573        8.9143187412663476        1332.3961697797424     
   467.07095316536368        4.9084102925919098        8.9169357829360401        1341.3131055626784     
   469.93650916537007        4.9081718497482445        8.9196856423322934        1350.2327912050107     
   472.97399852537683        4.9079195551055692        8.9225732226306338        1359.1553644276414     
   476.19373724698403        4.9076526338368884        8.9256033382962965        1368.0809677659377     
   479.60666029188764        4.9073702715228373        8.9287806638958642        1377.0097484298335     
   483.22435871948545        4.9070716126018237        8.9321096748941464        1385.9418581047275     
   487.05911905273916        4.9067557588210633        8.9355945795606342        1394.8774526842881     
   491.12396500598811        4.9064217676980952        8.9392392410513768        1403.8166919253395     
   495.43270171643195        4.9060686510036362        8.9430470887006290        1412.7597390140402     
   499.99996262950242        4.9056953732780384        8.9470210175082148        1421.7067600315484     
   504.84125919735715        4.9053008503950215        8.9511632748024077        1430.6579233063508     
   509.97303355928312        4.9048839481878854        8.9554753330352934        1439.6133986393861     
   515.41271438292472        4.9044434811549387        8.9599577476937640        1448.5733563870799     
   521.17877605598483        4.9039782112624737        8.9646099993428372        1457.5379663864228     
   527.29080142942848        4.9034868468651656        8.9694303188927176        1466.5073967053156     
   533.76954832527872        4.9029680417653543        8.9744154952839068        1475.4818122005995     
   540.63702003488004        4.9024203944341664        8.9795606649174236        1484.4613728655170     
   547.91654004705742        4.9018424424551297        8.9848594513023858        1493.4462323168193     
   555.19606005923481        4.9012670392186735        8.9900037380069229        1502.4362360548262     
   562.47558007141220        4.9006941740333563        8.9949945752142817        1511.4312306300405     
   569.75510008358958        4.9001238356749290        8.9998330999099192        1520.4310637299504     
   577.03462009576697        4.8995560124329476        9.0045205274209099        1529.4355842573714     
   584.31414010794435        4.8989906921541282        9.0090581435336841        1538.4446424009050     
   591.59366012012174        4.8984278622826887        9.0134472971636583        1547.4580896980685     
   598.87318013229913        4.8978675098978641        9.0176893935383102        1556.4757790916069     
   606.15270014447651        4.8973096217488026        9.0217858878634587        1565.4975649794703     
