 #              _____________________  _______________________             #
 #              ___  __ \__  __ \_  / / /_  /___  ____/_  ___/             #
 #              __  / / /_  /_/ /  / / /_  __/_  __/  _____ \              #
 #              _  /_/ /_  _, _// /_/ / / /_ _  /___  ____/ /              #
 #              /_____/ /_/ |_| \____/  \__/ /_____/  /____/               #
 #                                                                         #
  
 #        time                      T            heat flux [W.L-2]   in    x              directions   cumulative flux
 #-----------------------------------------------------------------------------------------------

   0.0000000000000000        5.4707999999999997       0.83978125593641550       0.83978125593641550     
   1.0000000000000000        5.4701489906519756        1.0097747795058960        1.8495560354423115     
   1.9540000000000002        5.4695614236746071        1.1586924534085152        3.0082484888508265     
   2.8641160000000001        5.4690290054063091        1.2897407123411839        4.2979892011920100     
   3.8288389600000006        5.4684936782510016        1.4173967458979435        5.7153859470899535     
   4.8514452976000007        5.4679560982267983        1.5412723172894087        7.2566582643793627     
   5.9354080154560007        5.4674168649041830        1.6610119786225594        8.9176702430019219     
   7.0844084963833609        5.4668765085539146        1.7762991791177301        10.693969422119652     
   8.3023490061663630        5.4663354782374727        1.8868618281751279        12.580831250294780     
   9.5933659465363448        5.4657941312798330        1.9924771099849805        14.573308360279761     
   10.961843903328527        5.4652527245537730        2.0929753569251108        16.666283717204870     
   12.412430537528239        5.4647114079721870        2.1882428102235973        18.854526527428469     
   13.950052369779934        5.4641702205288576        2.2782231284563568        21.132749655884826     
   15.579931511966731        5.4636290891493511        2.3629175466943053        23.495667202579131     
   17.307603402684734        5.4630878305142136        2.4423836399966805        25.938050842575812     
   19.138935606845820        5.4625461559004034        2.5167327021191239        28.454783544694937     
   21.080147743256571        5.4620036789597357        2.5861258104764593        31.040909355171397     
   23.137832607851966        5.4614599262221466        2.6507687078722544        33.691678063043653     
   25.318978564323086        5.4609143499850488        2.7109056861044474        36.402583749148100     
   27.630993278182473        5.4603663431365748        2.7668127022573707        39.169396451405468     
   30.081728874873424        5.4598152553682047        2.8187899916358248        41.988186443041293     
   32.679508607365833        5.4592604101681408        2.8671544591921432        44.855340902233436     
   35.433155123807786        5.4587011219556523        2.9122321323733091        47.767573034606748     
   38.352020431236255        5.4581367127210578        2.9543509424476104        50.721923977054360     
   41.446017657110431        5.4575665275751373        2.9938340700545041        53.715758047108864     
   44.725654716537058        5.4569899486824145        3.0309940466796279        56.746752093788494     
   48.202069999529286        5.4564064071486413        3.0661277509836067        59.812879844772098     
   51.887070199501046        5.4558153925460209        3.0995123819732147        62.912392226745311     
   55.793170411471110        5.4552164598812203        3.1314024346339351        66.043794661379252     
   59.933636636159378        5.4546092339319783        3.1620276521502992        69.205822313529552     
   63.444751994695032        5.4541124756461858        3.1860742517875420        72.391896565317097     
   67.166534274742830        5.4536045983519825        3.2097409846662268        75.601637549983323     
   70.888316554790620        5.4531139240604105        3.2318533114973147        78.833490861480641     
   74.833405771641281        5.4526116188046112        3.2537980655071013        82.087288926987739     
   78.778494988491943        5.4521258026083492        3.2744494631015391        85.361738390089272     
   82.723584205342604        5.4516553176257752        3.2939691332031669        88.655707523292435     
   86.668673422193265        5.4511991399930517        3.3124883211315321        91.968195844423974     
   90.850467992054959        5.4507305874892324        3.3311213687315813        95.299317213155561     
   95.032262561916653        5.4502760670997965        3.3488611608860075        98.648178374041564     
   99.464964805970055        5.4498090167759328        3.3667633912551391        102.01494176529670     
   103.89766705002346        5.4493557859678639        3.3838481253981869        105.39878989069489     
   108.33036929407686        5.4489155410618091        3.4001862750169782        108.79897616571186     
   112.76307153813026        5.4484875242979589        3.4158380301748821        112.21481419588675     
   117.46173591682687        5.4480467460531177        3.4317186538262088        115.64653284971295     
   122.16040029552347        5.4476181389834473        3.4469415065087765        119.09347435622173     
   127.14098453694187        5.4471766783883613        3.4623925640876054        122.55586692030934     
   132.42040383284538        5.4467223014482595        3.4780563992750628        126.03392331958440     
   138.01658828650309        5.4462549556967055        3.4939149790638711        129.52783829864828     
   143.94854380738028        5.4457745967738536        3.5099475896728123        133.03778588832108     
   150.23641665951010        5.4452811857437036        3.5261307953057379        136.56391668362681     
   156.90156188276771        5.4447746859766193        3.5424384331727063        140.10635511679953     
   163.96661581942075        5.4442550596051493        3.5588416466540713        143.66519676345359     
   171.45557299227301        5.4437222635673539        3.5753089578065413        147.24050572126015     
   179.39386759549637        5.4431762452571695        3.5918063795714517        150.83231210083159     
   187.80845987491315        5.4426169378054308        3.6082975671073840        154.44060966793896     
   196.72792769109495        5.4420442550177492        3.6247440065368965        158.06535367447586     
   206.18256357624765        5.4414580859961923        3.6411052381459421        161.70645891262180     
   215.63719946140034        5.4408911764342562        3.6564751044168800        165.36293401703867     
   225.09183534655304        5.4403420746460398        3.6709261700914650        169.03386018713013     
   234.54647123170574        5.4398094720907952        3.6845240277408151        172.71838421487095     
   244.00110711685844        5.4392921859662522        3.6973281876864652        176.41571240255740     
   253.45574300201113        5.4387891443096361        3.7093928135553851        180.12510521611279     
   262.91037888716380        5.4382993731852212        3.7207673380455812        183.84587255415838     
   272.36501477231650        5.4378219856191974        3.7314969842799321        187.57736953843832     
   281.81965065746920        5.4373561720063304        3.7416232116643342        191.31899275010267     
   291.27428654262189        5.4369011917627450        3.7511841005484281        195.07017685065108     
   300.72892242777459        5.4364563660387208        3.7602146866668762        198.83039153731795     
   310.75083646603645        5.4359955213284685        3.7692295331556780        202.59962107047363     
   320.77275050429830        5.4355446701797403        3.7777219636097419        206.37734303408337     
   330.79466454256016        5.4351031911932601        3.7857243216966499        210.16306735578002     
   340.81657858082201        5.4346705128906425        3.7932664005815688        213.95633375636157     
   350.83849261908387        5.4342461087214158        3.8003756779218811        217.75670943428347     
   360.86040665734572        5.4338294926590258        3.8070775253347993        221.56378695961826     
   371.48363553790330        5.4333960974689202        3.8137515036870462        225.37753846330531     
   382.74425815129433        5.4329453494559754        3.8203731687562983        229.19791163206162     
   394.68051812148883        5.4324766413183703        3.8269164784200380        233.02482811048165     
   407.33295368989496        5.4319893273575062        3.8333537858901314        236.85818189637178     
   420.74453539240551        5.4314827181312779        3.8396558279911441        240.69783772436293     
   434.96081199706668        5.4309560745148877        3.8457917052345203        244.54362942959744     
   450.03006519800749        5.4304086011330766        3.8517288503009386        248.39535827989837     
   465.09931839894830        5.4298711030246167        3.8571393998554142        252.25249767975379     
   480.16857159988911        5.4293428579188241        3.8620597548981328        256.11455743465194     
   492.22397416064177        5.4289258404865084        3.8656995056268340        259.98025694027876     
   505.00270087503958        5.4284896916749918        3.8692432815858853        263.84950022186467     
   517.78142758943738        5.4280590815488541        3.8724900289643531        267.72199025082904     
   530.56015430383525        5.4276336841576160        3.8754557257380102        271.59744597656703     
   544.10560462109697        5.4271882603849200        3.8783010645575504        275.47574704112458     
   558.46378195739442        5.4267218925602956        3.8810010355403763        279.35674807666493     
   573.68344993386961        5.4262336046366491        3.8835286011217010        283.24027667778665     
   589.81629798893334        5.4257223558924688        3.8858545836570952        287.12613126144373     
   606.91711692730098        5.4251870339550772        3.8879475417099116        291.01407880315367     
   621.41861138703666        5.4247375348646250        3.8894681097151169        294.90354691286876     
   635.92010584677234        5.4242922167126189        3.8907470320615576        298.79429394493030     
   650.42160030650803        5.4238508252156850        3.8917959693235491        302.68608991425384     
   665.79318443382783        5.4233870808616382        3.8926622292892077        306.57875214354306     
   682.08706360878693        5.4228998425650801        3.8933184931296041        310.47207063667264     
   699.35857553424353        5.4223878943380628        3.8937350416352619        314.36580567830788     
   717.66637817522746        5.4218499379061047        3.8938795654893261        318.25968524379721     
   737.07264897467053        5.4212845844921436        3.8937169422572957        322.15340218605451     
   756.47891977411359        5.4207237337226033        3.8932547603962990        326.04665694645081     
   775.88519057355666        5.4201670370555020        3.8925077766551484        329.93916472310593     
   795.29146137299972        5.4196141722095224        3.8914893699571809        333.83065409306312     
   815.86210842040930        5.4190320866810184        3.8901192243175982        337.72077331738069     
   826.39427970868303        5.4187350490502624        3.8893433406627125        341.61011665804341     
   837.55838127425318        5.4184212496372908        3.8884393817026939        345.49855603974612     
   848.72248283982333        5.4181084607652243        3.8874558169930120        349.38601185673912     
   860.55643049932769        5.4177779830486514        3.8863259275292328        353.27233778426836     
   873.10041501840226        5.4174288235789874        3.8850325039046147        357.15737028817296     
   886.39703860862141        5.4170599293918222        3.8835564947250742        361.04092678289805     
   900.49145961425370        5.4166701826557091        3.8818767935852683        364.92280357648332     
   915.43154588022389        5.4162583952636032        3.8799699898729569        368.80277356635628     
   931.26803732215228        5.4158233027179907        3.8778100739925092        372.68058364034880     
   948.05471825059635        5.4153635571729666        3.8753680848276493        376.55595172517644     
   965.84860003474705        5.4148777194600504        3.8726116837435458        380.42856340892001     
   984.71011472594682        5.4143642498766420        3.8695046349855655        384.29806804390557     
   1004.7033202986186        5.4138214974529602        3.8660061667864105        388.16407421069198     
   1025.8961182056507        5.4132476873310704        3.8620701807103712        392.02614439140234     
   1047.0889161126829        5.4126751856506061        3.8579083015953461        395.88405269299767     
   1068.2817140197151        5.4121037995195262        3.8535212758217834        399.73757396881945     
   1090.7460798011691        5.4114991600540616        3.8486177668659427        403.58619173568542     
   1113.2104455826232        5.4108953315339559        3.8434595832252825        407.42965131891071     
   1135.6748113640772        5.4102920984896876        3.8380442352298973        411.26769555414063     
   1159.4870390924184        5.4096530866837007        3.8320107599662983        415.09970631410692     
   1183.2992668207596        5.4090142376429640        3.8256786004012073        418.92538491450813     
   1207.1114945491008        5.4083752991010652        3.8190411280227625        422.74442604253090     
   1230.9237222774420        5.4077360179213114        3.8120906366317979        426.55651667916271     
   1256.1646836694838        5.4070576910768171        3.8043609681739796        430.36087764733668     
   1281.4056450615255        5.4063783682859210        3.7962575533703973        434.15713520070710     
   1308.1610641370899        5.4056567959017592        3.7872328508805637        437.94436805158767     
   1334.9164832126542        5.4049333558507620        3.7777567365496925        441.72212478813736     
   1363.2772274327522        5.4041639525320937        3.7671840860431995        445.48930887418055     
   1393.3396163060561        5.4033449542480581        3.7553577092168560        449.24466658339742     
   1425.2057485117582        5.4024722810853296        3.7420932369648798        452.98675982036229     
   1457.0718807174603        5.4015943768374912        3.7280665209688517        456.71482634133116     
   1488.9380129231624        5.4007105296604880        3.7132429976070225        460.42806933893820     
   1520.8041451288645        5.3998200124954980        3.6975875657422095        464.12565690468040     
   1546.2970508934263        5.3991029517366247        3.6845127015719217        467.81016960625232     
   1571.7899566579881        5.3983808600529262        3.6708691796863020        471.48103878593861     
   1597.2828624225499        5.3976533482625646        3.6566389084236643        475.13767769436225     
   1624.3053425329854        5.3968756261185948        3.6408741655448331        478.77855185990711     
   1652.9491714500471        5.3960433040762901        3.6233736258787008        482.40192548578580     
   1683.3116301021323        5.3951514435032726        3.6039061733451496        486.00583165913093     
   1715.4958362733428        5.3941944661781882        3.5822064744727387        489.58803813360367     
   1749.6110948148257        5.3931660476439314        3.5579700053921282        493.14600813899580     
   1785.7732688687977        5.3920589918187334        3.5308475098315251        496.67685564882731     
   1824.1051733660081        5.3908650840013230        3.5004388809050768        500.17729452973236     
   1862.4370778632185        5.3896493458832389        3.4683247123329766        503.64561924206532     
   1900.7689823604289        5.3884103822022951        3.4344616749019807        507.08008091696729     
   1939.1008868576394        5.3871468083644478        3.3988100383319506        510.47889095529922     
   1977.4327913548498        5.3858572545446215        3.3613338004675581        513.84022475576683     
   2015.7646958520602        5.3845403695874978        3.3220007784005738        517.16222553416742     
   2054.0966003492704        5.3831948246868730        3.2807826651713450        520.44300819933881     
   2094.7284191163135        5.3817347949430436        3.2349445819554683        523.67795278129427     
   2127.2338741299477        5.3805443911079260        3.1968873974153311        526.87484017870963     
   2161.6896564444000        5.3792565098948693        3.1549760243987084        530.02981620310834     
   2196.1454387588524        5.3779416906865105        3.1114837689156594        533.14129997202394     
   2232.6685680121718        5.3765166907519415        3.0635967356347877        536.20489670765869     
   2271.3830850206905        5.3749698519399374        3.0108237370097273        539.21572044466836     
   2312.4204730497204        5.3732880205939431        2.9526193634739828        542.16833980814238     
   2353.4578610787503        5.3715627106714532        2.8921510278792266        545.06049083602159     
   2394.4952491077802        5.3697926831778293        2.8294240731987781        547.88991490922035     
   2435.5326371368101        5.3679767580385160        2.7644479530331227        550.65436286225349     
   2476.5700251658400        5.3661138153066368        2.6972360224248995        553.35159888467842     
   2517.6074131948699        5.3642027959926875        2.6278053007369686        555.97940418541543     
   2561.1070445056416        5.3621219130464244        2.5517402887379483        558.53114447415339     
   2604.6066758164134        5.3599847219763017        2.4732354578504432        561.00437993200387     
   2650.7162850058312        5.3576548131234478        2.3873177092722315        563.39169764127610     
   2699.5924707466143        5.3551113250995090        2.2932597790276059        565.68495742030370     
   2751.4012276318444        5.3523308958188576        2.1902717493892832        567.87522916969294     
   2806.3185099301882        5.3492873761470836        2.0774987475676405        569.95272791726063     
   2864.5308291664328        5.3459515205336423        1.9540193390244152        571.90674725628503     
   2922.7431484026774        5.3425046078728311        1.8267177872531102        573.73346504353810     
   2980.9554676389221        5.3389455277499138        1.6957173258902596        575.42918236942842     
   3039.1677868751667        5.3352733842442293        1.5611458370873694        576.99032820651576     
   3097.3801061114114        5.3314874879945320        1.4231350135537595        578.41346322006950     
   3143.9499615004070        5.3283856982321964        1.3105939812183649        579.72405720128791     
   3193.3140082127425        5.3250154725404819        1.1889873755168041        580.91304457680474     
   3242.6780549250780        5.3215627898348137        1.0651516792954718        581.97819625610020     
   3295.0039444401536        5.3178102595395398       0.93148205285189889        582.90967830895215     
   3350.4693873261335        5.3137285282628870       0.78721217959093237        583.69689048854309     
   3405.9348302121134        5.3095429701275281       0.64048246064445813        584.33737294918751     
   3461.4002730980933        5.3052539306987878       0.49141308387521371        584.82878603306267     
   3516.8657159840732        5.3008618712451483       0.34012344963872576        585.16890948270145     
