 #              _____________________  _______________________             #
 #              ___  __ \__  __ \_  / / /_  /___  ____/_  ___/             #
 #              __  / / /_  /_/ /  / / /_  __/_  __/  _____ \              #
 #              _  /_/ /_  _, _// /_/ / / /_ _  /___  ____/ /              #
 #              /_____/ /_/ |_| \____/  \__/ /_____/  /____/               #
 #                                                                         #
  
 #        time                      T            heat flux [W.L-2]   in    x              directions   cumulative flux
 #-----------------------------------------------------------------------------------------------

   0.0000000000000000        5.3307000000000002       -3.3483826721547971        3.3483826721547971     
   1.0000000000000000        5.3312589631147915       -3.4943442329970074        6.8427269051518049     
   1.9540000000000002        5.3317634539176808       -3.6222093911372553        10.464936296289061     
   2.8641160000000001        5.3322205934619769       -3.7347311694354604        14.199667465724520     
   3.8288389600000006        5.3326802305651944       -3.8443398628377996        18.044007328562319     
   4.8514452976000007        5.3331418019110064       -3.9507016969102118        21.994709025472531     
   5.9354080154560007        5.3336047925669199       -4.0535107865607642        26.048219812033295     
   7.0844084963833609        5.3340687469625170       -4.1524942690214521        30.200714081054748     
   8.3023490061663630        5.3345332790314517       -4.2474169387253937        34.448131019780142     
   9.5933659465363448        5.3349980811300020       -4.3380852067958351        38.786216226575974     
   10.961843903328527        5.3354629313513922       -4.4243502194214628        43.210566445997436     
   12.412430537528239        5.3359276988795452       -4.5061099922150936        47.716676438212531     
   13.950052369779934        5.3363923470688395       -4.5833104531913280        52.299986891403861     
   15.579931511966731        5.3368569339959473       -4.6559453363693297        56.955932227773189     
   17.307603402684734        5.3373216103020784       -4.7240549326403061        61.679987160413496     
   19.138935606845820        5.3377866142214812       -4.7877237859333714        66.467710946346870     
   21.080147743256571        5.3382522637635086       -4.8470775231288776        71.314788469475744     
   23.137832607851966        5.3387189460646365       -4.9022791286774714        76.217067598153221     
   25.318978564323086        5.3391871039306746       -4.9535251237759130        81.170592721929140     
   27.630993278182473        5.3396572195177292       -5.0010422905832455        86.171635012512382     
   30.081728874873424        5.3401297949135182       -5.0450858002390024        91.216720812751390     
   32.679508607365833        5.3406053290281470       -5.0859398647477896        96.302660677499176     
   35.433155123807786        5.3410842896238711       -5.1239223394464926        101.42658301694567     
   38.352020431236255        5.3415670784343954       -5.1593950511173512        106.58597806806303     
   41.446017657110431        5.3420539860663592       -5.1927820026598557        111.77876007072288     
   44.725654716537058        5.3425451316590324       -5.2245979790536916        117.00335804977658     
   48.202069999529286        5.3430403800353830       -5.2554904016511603        122.25884845142774     
   51.887070199501046        5.3435392262721999       -5.2862974759521029        127.54514592737983     
   55.793170411471110        5.3440406342694171       -5.3181256563193742        132.86327158369920     
   59.933636636159378        5.3445428121172682       -5.3524490960535456        138.21572067975274     
   63.444751994695032        5.3449480385267059       -5.3828722903188835        143.59859297007162     
   67.166534274742830        5.3453544894693836       -5.4176489357388018        149.01624190581043     
   70.888316554790620        5.3457375094109985       -5.4559924291722588        154.47223433498269     
   74.833405771641281        5.3461162932045232       -5.5018732423112962        159.97410757729398     
   78.778494988491943        5.3464665292051947       -5.5542096375434697        165.52831721483744     
   82.723584205342604        5.3467864857723475       -5.6142044340690047        171.14252164890644     
   86.668673422193265        5.3470740672554129       -5.6830358697386396        176.82555751864507     
   90.850467992054959        5.3473396205508870       -5.7672848298325219        182.59284234847760     
   95.032262561916653        5.3475626232580646       -5.8641214544198403        188.45696380289743     
   99.464964805970055        5.3477469158768072       -5.9823671982649742        194.43933100116240     
   103.89766705002346        5.3478745170570008       -6.1175570748210450        200.55688807598344     
   108.33036929407686        5.3479405731047169       -6.2709110264861856        206.82779910246961     
   112.76307153813026        5.3479400455555366       -6.4435114594442062        213.27131056191382     
   117.46173591682687        5.3478585273186603       -6.6491967212186935        219.92050728313251     
   122.16040029552347        5.3476898443935781       -6.8785209014742392        226.79902818460675     
   127.14098453694187        5.3474057420940593       -7.1490008623148649        233.94802904692162     
   132.42040383284538        5.3469776836157825       -7.4671760932078781        241.41520514012950     
   138.01658828650309        5.3463714747086026       -7.8402316812958714        249.25543682142538     
   143.94854380738028        5.3455464654628075       -8.2759487510039378        257.53138557242931     
   150.23641665951010        5.3444547384543881       -8.7826209107928825        266.31400648322222     
   156.90156188276771        5.3430403128985269       -9.3689346206720767        275.68294110389428     
   163.96661581942075        5.3412383992743386       -10.043814211519734        285.72675531541404     
   171.45557299227301        5.3389747411439341       -10.816235963846708        296.54299127926072     
   179.39386759549637        5.3361650792016313       -11.695020095211015        308.23801137447174     
   187.80845987491315        5.3327147653960765       -12.688614597225108        320.92662597169686     
   196.72792769109495        5.3285185404673134       -13.804890597313214        334.73151656901007     
   206.18256357624765        5.3234604737032383       -15.050964815236979        349.78248138424703     
   215.63719946140034        5.3177926068314623       -16.351996162091410        366.13447754633842     
   225.09183534655304        5.3115193544641350       -17.700452114075794        383.83492966041422     
   234.54647123170574        5.3046486352355089       -19.089211766829823        402.92414142724402     
   244.00110711685844        5.2971913084411755       -20.511587926921941        423.43572935416597     
   253.45574300201113        5.2891606992335989       -21.961314123178902        445.39704347734488     
   262.91037888716380        5.2805722063392100       -23.432515947056000        468.82955942440088     
   272.36501477231650        5.2714429769557078       -24.919681258641106        493.74924068304199     
   281.81965065746920        5.2617916293774707       -26.417638805300605        520.16687948834260     
   291.27428654262189        5.2516380080841518       -27.921545446915971        548.08842493525856     
   300.72892242777459        5.2410029617190173       -29.426879318846602        577.51530425410510     
   310.75083646603645        5.2292147037947165       -31.019155914601701        608.53446016870680     
   320.77275050429830        5.2169378893342593       -32.603478106340098        641.13793827504685     
   330.79466454256016        5.2041995511761385       -34.175679183868311        675.31361745891513     
   340.81657858082201        5.1910269636092234       -35.732007202305681        711.04562466122081     
   350.83849261908387        5.1774474129410653       -37.269128821067248        748.31475348228810     
   360.86040665734572        5.1634879802905225       -38.784130205432284        787.09888368772033     
   371.48363553790330        5.1482958654349211       -40.362235409140069        827.46111909686044     
   382.74425815129433        5.1317850400283653       -42.000946071798857        869.46206516865925     
   394.68051812148883        5.1138681617200055       -43.697102871593472        913.15916804025278     
   407.33295368989496        5.0944570528610251       -45.447019856890314        958.60618789714306     
   420.74453539240551        5.0734629322437508       -47.246742767348600        1005.8529306644916     
   434.96081199706668        5.0507961809326902       -49.092463651787774        1054.9453943162794     
   450.03006519800749        5.0263654711619674       -50.981032252361729        1105.9264265686411     
   465.09931839894830        5.0015827657397063       -52.804786213085443        1158.7312127817265     
   480.16857159988911        4.9764922688613016       -54.567599949055946        1213.2988127307824     
   492.22397416064177        4.9562426104172221       -55.940968059030901        1269.2397807898133     
   505.00270087503958        4.9345991299416569       -57.357782828344178        1326.5975636181574     
   517.78142758943738        4.9127945803766258       -58.737883143869894        1385.3354467620272     
   530.56015430383525        4.8908448163519562       -60.083146175814711        1445.4185929378420     
   544.10560462109697        4.8674321272472376       -61.471694290991806        1506.8902872288338     
   558.46378195739442        4.8424699474671513       -62.902903237567756        1569.7931904664015     
   573.68344993386961        4.8158695062000998       -64.375317254410334        1634.1685077208117     
   589.81629798893334        4.7875410119447057       -65.886456124514964        1700.0549638453267     
   606.91711692730098        4.7573951184712548       -67.432667384657648        1767.4876312299843     
   621.41861138703666        4.7317653340531782       -68.703877172226740        1836.1915084022112     
   635.92010584677234        4.7060878039703224       -69.935129052280971        1906.1266374544921     
   650.42160030650803        4.6803804714562931       -71.126493242540064        1977.2531306970322     
   665.79318443382783        4.6531178807548006       -72.344756187373662        2049.5978868844059     
   682.08706360878693        4.6242284354574323       -73.586645840757271        2123.1845327251631     
   699.35857553424353        4.5936411828147712       -74.848704231606007        2198.0332369567691     
   717.66637817522746        4.5612859267905330       -76.127403205210044        2274.1606401619792     
   737.07264897467053        4.5270934744789368       -77.419089678940836        2351.5797298409202     
   756.47891977411359        4.4930304841025919       -78.649584043219036        2430.2293138841392     
   775.88519057355666        4.4591200188725173       -79.821007016016225        2510.0503209001554     
   795.29146137299972        4.4253838962284533       -80.934887735526459        2590.9852086356818     
   815.86210842040930        4.3898445312750951       -82.052282716535544        2673.0374913522173     
   826.39427970868303        4.3717096033930618       -82.607940554171236        2755.6454319063887     
   837.55838127425318        4.3525592380615841       -83.178648686495080        2838.8240805928835     
   848.72248283982333        4.3334853200948045       -83.731239776610678        2922.5553203694944     
   860.55643049932769        4.3133572789199377       -84.296826586596879        3006.8521469560915     
   873.10041501840226        4.2921281678420105       -84.873924803656578        3091.7260717597483     
   886.39703860862141        4.2697510314400562       -85.460744783058018        3177.1868165428064     
   900.49145961425370        4.2461792637986493       -86.055210850632861        3263.2420273934390     
   915.43154588022389        4.2213669098324011       -86.655030449837142        3349.8970578432763     
   931.26803732215228        4.1952688092773158       -87.257834296511859        3437.1548921397880     
   948.05471825059635        4.1678404269936227       -87.861418175527859        3525.0163103153159     
   965.84860003474705        4.1390371998024396       -88.464083266073516        3613.4803935813893     
   984.71011472594682        4.1088131937088157       -89.065085341080504        3702.5454789224700     
   1004.7033202986186        4.0771188804735150       -89.665168992847825        3792.2106479153176     
   1025.8961182056507        4.0438983504891493       -90.266869521700684        3882.4775174370184     
   1047.0889161126829        4.0110372385290232       -90.841073226422978        3973.3185906634412     
   1068.2817140197151        3.9785160419890895       -91.393550826483704        4064.7121414899248     
   1090.7460798011691        3.9444017088627144       -91.959446224610090        4156.6715877145352     
   1113.2104455826232        3.9106246592012512       -92.507888828288358        4249.1794765428240     
   1135.6748113640772        3.8771691946578399       -93.039077779057820        4342.2185543218820     
   1159.4870390924184        3.8420565869867831       -93.581206858886631        4435.7997611807687     
   1183.2992668207596        3.8072903097907482       -94.099930315128063        4529.8996914958971     
   1207.1114945491008        3.7728723301339788       -94.592616837800605        4624.4923083336980     
   1230.9237222774420        3.7388087511757950       -95.056953368709699        4719.5492617024074     
   1256.1646836694838        3.7031085258345930       -95.515883616265185        4815.0651453186729     
   1281.4056450615255        3.6678217735698961       -95.942492414473804        4911.0076377331470     
   1308.1610641370899        3.6308855334761687       -96.360573853844230        5007.3682115869915     
   1334.9164832126542        3.5944193506494893       -96.745701223465758        5104.1139128104569     
   1363.2772274327522        3.5562966137559968       -97.117536329502343        5201.2314491399593     
   1393.3396163060561        3.5164867876501704       -97.472009909971405        5298.7034590499306     
   1425.2057485117582        3.4749645710411823       -97.805130306277505        5396.5085893562082     
   1457.0718807174603        3.4341196144427206       -98.097218850555507        5494.6058082067639     
   1488.9380129231624        3.3939542540900787       -98.348924242196347        5592.9547324489604     
   1520.8041451288645        3.3544710404744764       -98.561113841269417        5691.5158462902300     
   1546.2970508934263        3.3233202094640610       -98.707118696493595        5790.2229649867240     
   1571.7899566579881        3.2926030285878269       -98.830731355314910        5889.0536963420391     
   1597.2828624225499        3.2623178862567510       -98.932534859257942        5987.9862312012974     
   1624.3053425329854        3.2306993876015078       -99.016576247302666        6087.0028074485999     
   1652.9491714500471        3.1977237582697082       -99.080406970128180        6186.0832144187279     
   1683.3116301021323        3.1633668726821336       -99.123159313882582        6285.2063737326107     
   1715.4958362733428        3.1275974958349733       -99.147157096679933        6384.3535308292903     
   1749.6110948148257        3.0903671293858865       -99.159427645405373        6483.5129584746956     
   1785.7732688687977        3.0516004810067958       -99.171533416540072        6582.6844918912357     
   1824.1051733660081        3.0111975030298539       -99.195027023024750        6681.8795189142602     
   1862.4370778632185        2.9714062742014313       -99.231481583564886        6781.1110004978254     
   1900.7689823604289        2.9321716716720392       -99.277764504888466        6880.3887650027136     
   1939.1008868576394        2.8934652854970322       -99.326436198070098        6979.7152012007837     
   1977.4327913548498        2.8552839343653869       -99.367869147825957        7079.0830703486099     
   2015.7646958520602        2.8176428994447988       -99.392854021919518        7178.4759243705294     
   2054.0966003492704        2.7805639533423849       -99.395614996058768        7277.8715393665880     
   2094.7284191163135        2.7418928047703490       -99.378696468481166        7377.2502358350694     
   2127.2338741299477        2.7113587686729490       -99.353521208882086        7476.6037570439512     
   2161.6896564444000        2.6794482974629856       -99.311821022452392        7575.9155780664032     
   2196.1454387588524        2.6480033847752242       -99.251820056919826        7675.1673981233234     
   2232.6685680121718        2.6152081800259239       -99.165666693270396        7774.3330648165938     
   2271.3830850206905        2.5810582010216381       -99.049725496011050        7873.3827903126048     
   2312.4204730497204        2.5455521976112436       -98.901302878254697        7972.2840931908595     
   2353.4578610787503        2.5107384182246979       -98.729576595980106        8071.0136697868393     
   2394.4952491077802        2.4766072170726892       -98.538394231269649        8169.5520640181094     
   2435.5326371368101        2.4431236749959040       -98.338342788086734        8267.8904068061966     
   2476.5700251658400        2.4102597790402389       -98.130868423863873        8366.0212752300613     
   2517.6074131948699        2.3780053982047633       -97.912067573891150        8463.9333428039517     
   2561.1070445056416        2.3444896107845898       -97.667071312897392        8561.6004141168487     
   2604.6066758164134        2.3116276984322761       -97.412901301794264        8659.0133154186424     
   2650.7162850058312        2.2774715323009556       -97.145688892196645        8756.1590043108390     
   2699.5924707466143        2.2419210606601361       -96.882972077200748        8853.0419763880400     
   2751.4012276318444        2.2048543731943822       -96.635550211780512        8949.6775265998203     
   2806.3185099301882        2.1661587770789534       -96.404549140177352        9046.0820757399979     
   2864.5308291664328        2.1257280364766120       -96.189529477236164        9142.2716052172345     
   2922.7431484026774        2.0858680472672080       -95.987731711726227        9238.2593369289607     
   2980.9554676389221        2.0466214200004655       -95.778662692694766        9334.0379996216561     
   3039.1677868751667        2.0080444129083337       -95.550998058156424        9429.5889976798117     
   3097.3801061114114        1.9702012642809490       -95.295453958517399        9524.8844516383288     
   3143.9499615004070        1.9403943265281434       -95.081428333819119        9619.9658799721474     
   3193.3140082127425        1.9093353405936244       -94.840573495849043        9714.8064534679961     
   3242.6780549250780        1.8788486366322172       -94.576965396926028        9809.3834188649216     
   3295.0039444401536        1.8472095560436175       -94.270716227882886        9903.6541350928037     
   3350.4693873261335        1.8144432005609907       -93.921895448218734        9997.5760305410222     
   3405.9348302121134        1.7824344692489280       -93.556663056121394        10091.132693597143     
   3461.4002730980933        1.7511431387651966       -93.184918893788264        10184.317612490931     
   3516.8657159840732        1.7204555301752706       -92.832236960725723        10277.149849451656     
