 #              _____________________  _______________________             #
 #              ___  __ \__  __ \_  / / /_  /___  ____/_  ___/             #
 #              __  / / /_  /_/ /  / / /_  __/_  __/  _____ \              #
 #              _  /_/ /_  _, _// /_/ / / /_ _  /___  ____/ /              #
 #              /_____/ /_/ |_| \____/  \__/ /_____/  /____/               #
 #                                                                         #
  
 #        time                      T            heat flux [W.L-2]   in    x              directions   cumulative flux
 #-----------------------------------------------------------------------------------------------

   0.0000000000000000        10.000000000000000       -0.0000000000000000        0.0000000000000000     
   1.0000000000000000        10.000000000000000       -3.9541703245049543E-012   3.9541703245049543E-012
   1.9540000000000002        9.9999999999999964       -3.1068481121110355E-011   3.5022651445615312E-011
   2.8641160000000001        9.9999999999999840       -1.4686918348161258E-010   1.8189183492722789E-010
   3.8288389600000006        9.9999999999999254       -6.1346128177319708E-010   7.9535311670042492E-010
   4.8514452976000007        9.9999999999996962       -2.3030217732866715E-009   3.0983748899870964E-009
   5.9354080154560007        9.9999999999988738       -7.8247381907203767E-009   1.0923113080707474E-008
   7.0844084963833609        9.9999999999961684       -2.4384238628272211E-008   3.5307351708979682E-008
   8.3023490061663630        9.9999999999879101       -7.0513589633947142E-008   1.0582094134292682E-007
   9.5933659465363448        9.9999999999643006       -1.9110335713890079E-007   2.9692429848182761E-007
   10.961843903328527        9.9999999999005293       -4.8937489793843990E-007   7.8629919642026751E-007
   12.412430537528239        9.9999999997367244       -1.1921467653053684E-006   1.9784459617256359E-006
   13.950052369779934        9.9999999993343636       -2.7780757960729401E-006   4.7565217577985760E-006
   15.579931511966731        9.9999999983849079       -6.2212633764614400E-006   1.0977785134260015E-005
   17.307603402684734        9.9999999962244193       -1.3439667394982227E-005   2.4417452529242242E-005
   19.138935606845820        9.9999999914685915       -2.8096738535790039E-005   5.2514191065032277E-005
   21.080147743256571        9.9999999813143603       -5.6995669208348627E-005   1.0950986027338090E-004
   23.137832607851966        9.9999999602384246       -1.1244154541894939E-004   2.2195140569233028E-004
   25.318978564323086        9.9999999176326497       -2.1614381970777986E-004   4.3809522540011014E-004
   27.630993278182473        9.9999998336109730       -4.0550789379663468E-004   8.4360311919674477E-004
   30.081728874873424        9.9999996717460409       -7.4353889457742860E-004   1.5871420137741734E-003
   32.679508607365833        9.9999993667709433       -1.3340685931731270E-003   2.9212106069473002E-003
   35.433155123807786        9.9999988042147461       -2.3446254081822856E-003   5.2658360151295863E-003
   38.352020431236255        9.9999977874120383       -4.0399898419426197E-003   9.3058258570722051E-003
   41.446017657110431        9.9999959852032614       -6.8302820876372863E-003   1.6136107944709491E-002
   44.725654716537058        9.9999928507874554       -1.1338249792411706E-002   2.7474357737121195E-002
   48.202069999529286        9.9999874984852966       -1.8491155098621769E-002   4.5965512835742961E-002
   51.887070199501046        9.9999785205529150       -2.9643147194182262E-002   7.5608660029925223E-002
   55.793170411471110        9.9999637206874841       -4.6734050538254295E-002  0.12234271056817952     
   59.933636636159378        9.9999397346654035       -7.2489867567569824E-002  0.19483257813574933     
   64.322530834328944        9.9999015020385791      -0.11066874791985162       0.30550132605560099     
   68.974758684388689        9.9998415466209565      -0.16635350504342131       0.47185483109902226     
   73.906120205452012        9.9997490185374502      -0.24628783867716367       0.71814266977618590     
   79.133363417779137        9.9996084480497736      -0.35924826036595664        1.0773909301421425     
   84.674241222845893        9.9993981625734669      -0.51643752335713677        1.5938284534992793     
   90.547571696216650        9.9990883246591800      -0.73187855978985517        2.3257070132891347     
   95.528155937635049        9.9987511399809836      -0.95366452041002991        3.2793715336991647     
   100.80757523353856        9.9982949119638320       -1.2371725724274183        4.5165441061265827     
   106.08699452944207        9.9977239321968092       -1.5732443708155144        6.0897884769420969     
   111.68317898309978        9.9969700828161425       -1.9929465992365383        8.0827350761786345     
   117.61513450397696        9.9959801112706348       -2.5135956258624215        10.596330702041056     
   123.90300735610677        9.9946877095938422       -3.1547992001432403        13.751129902184296     
   130.56815257936438        9.9930113078307432       -3.9383094851510791        17.689439387335376     
   137.63320651601742        9.9908518631805183       -4.8877071696711836        22.577146557006561     
   145.12216368886968        9.9880907808135753       -6.0279021457993736        28.605048702805934     
   153.06045829209305        9.9845881234306244       -7.3844549086086966        35.989503611414634     
   161.47505057150983        9.9801812730824793       -8.9827446381813747        44.972248249596007     
   170.39451838769162        9.9746841960479475       -10.847032112262031        55.819280361858034     
   179.84915427284432        9.9678874267691793       -12.999485640827018        68.818766002685052     
   189.87106831110617        9.9595588283200556       -15.459254853830663        84.278020856515710     
   200.49429719166375        9.9494451021767496       -18.241691988178729        102.51971284469444     
   211.75491980505478        9.9372738998559189       -21.357841132104028        123.87755397679847     
   223.69117977524928        9.9227561981346390       -24.814368219548594        148.69192219634706     
   236.34361534365544        9.9055878684751697       -28.614623144264417        177.30654534061148     
   240.48956543071077        9.8997725571875854       -29.873321316905628        207.17986665751710     
   242.73965546195743        9.8965608819432020       -30.560210270881573        237.74007692839868     
   245.12475089507890        9.8930943666416695       -31.292331163257341        269.03240809165601     
   247.65295205418766        9.8893504456565715       -32.072647362771590        301.10505545442760     
   250.33284528284295        9.8853044008722932       -32.904297672899759        334.00935312732736     
   253.17353210521756        9.8809291557847754       -33.790604079309190        367.79995720663658     
   256.18466013693461        9.8761950504478442       -34.735080406167839        402.53503761280444     
   259.37645585055469        9.8710695961747703       -35.741441549803497        438.27647916260793     
   262.75975930699201        9.8655172083304539       -36.813613005815569        475.09009216842350     
   266.34606097081553        9.8594989156468031       -37.955740019987452        513.04583218841094     
   270.14754073446846        9.8529720467545818       -39.172194307679575        552.21802649609049     
   274.17710928394058        9.8458898844323901       -40.467580583121872        592.68560707921233     
   278.44845194638106        9.8382013054001725       -41.846732391752631        634.53233947096498     
   282.97607516856795        9.8298503921185336       -43.314701526061484        677.84704099702651     
   287.77535578408606        9.8207760295785498       -44.876733409824539        722.72377440685102     
   292.86259323653525        9.8109114942482627       -46.538224892471987        769.26199929932295     
   298.25506493613142        9.8001840477905056       -48.304660285165490        817.56665958448843     
   303.97108493770332        9.7885145525186665       -50.181522128699200        867.74818171318759     
   310.03006613936958        9.7758171298759819       -52.174174484442830        919.92235619763039     
   316.45258621313576        9.7619988869601020       -54.287718495535579        974.21007469316601     
   323.26045749132794        9.7469597386090605       -56.526822506114932        1030.7368971992810     
   330.47680104621168        9.7305923530986309       -58.895532007707061        1089.6324292069880     
   338.12612521438842        9.7127822473442951       -61.397067926689175        1151.0294971336773     
   346.23440883265579        9.6934080519108328       -64.033625151960763        1215.0631222856380     
   354.82918946801919        9.6723419562064681       -66.806186843957335        1281.8693091295954     
   363.93965694150438        9.6494503283589328       -69.714374770463579        1351.5836839000590     
   373.59675246339867        9.6245944781932877       -72.756364613272510        1424.3400485133316     
   383.83327371660664        9.5976314808568670       -75.928919132503694        1500.2689676458353     
   394.68398624500708        9.5684147806643765       -79.227751292509055        1579.4967189383444     
   406.18574152511155        9.5367937915079999       -82.648723760180431        1662.1454426985249     
   410.89686048784233        9.5237367887346522       -84.037073035317150        1746.1825157338421     
   415.89064658833695        9.5097831704335611       -85.494186606750702        1831.6767023405928     
   420.88443268883157        9.4957209565688512       -86.936840727845720        1918.6135430684385     
   426.17784595535585        9.4806981271046737       -88.450074371644632        2007.0636174400831     
   431.78886401787162        9.4646482330255406       -90.036662517885262        2097.1002799579683     
   437.73654316413831        9.4475001839827204       -91.699659836933549        2188.7999397949020     
   444.04108305918101        9.4291778069682906       -93.442447613331041        2282.2423874082328     
   450.72389534792626        9.4095993642408278       -95.268743152041608        2377.5111305602745     
   457.80767637399629        9.3886770614781074       -97.182553678980909        2474.6936842392556     
   465.31648426163048        9.3663165925274665       -99.188061372385988        2573.8817456116417     
   473.27582062252276        9.3424167796438695       -101.28943415849747        2675.1711797701391     
   481.71271716506857        9.3168693747145337       -103.49056719128085        2778.6617469614198     
   490.65582750016711        9.2895590851684879       -105.79477094326128        2884.4565179046813     
   500.13552445537158        9.2603638765447887       -108.20443192645921        2992.6609498311404     
   510.18400322788830        9.2291555815607680       -110.72068008760566        3103.3816299187461     
   520.83539072675603        9.1958008127641584       -113.34310301262684        3216.7247329313727     
   532.12586147555578        9.1601621296788309       -116.06955450385509        3332.7942874352279     
   544.09376046928355        9.1220993350323898       -118.89612819916780        3451.6904156343958     
   556.77973340263497        9.0814701229555563       -121.81794007405215        3573.5083557084481     
   569.46570633598640        9.0405960217382990       -124.66365314980716        3698.1720088582551     
   582.91283764533887        8.9970377754252713       -127.59339315672143        3825.7654020149766     
   597.16679683325253        8.9506558160892684       -130.60019552719993        3956.3655975421766     
   612.27599357244105        8.9013129114388860       -133.67482271652023        4090.0404202586969     
   628.29174211598081        8.8488765252482722       -136.80593486309064        4226.8463551217874     
   645.26843557213306        8.7932195684781043       -139.98154085186624        4366.8278959736535     
   663.26373063565438        8.7342080102464017       -143.19931902196151        4510.0272149956154     
   679.45949619282362        8.6811187971812043       -145.98892540728949        4656.0161404029050     
   695.65526174999286        8.6280729869474975       -148.68403960683366        4804.7001800097387     
   712.82277324059226        8.5719162326549423       -151.44166318034550        4956.1418431900838     
   731.02033542062759        8.5125050008363345       -154.25241747823668        5110.3942606683204     
   750.30975133146501        8.4497135920869617       -157.09738574035126        5267.4916464086718     
   770.30975133146501        8.3848843127918276       -159.89103689851507        5427.3826833071871     
   790.30975133146501        8.3204161610528686       -162.51875309886796        5589.9014364060549     
   810.30975133146501        8.2563966766346759       -164.97476416750038        5754.8762005735553     
   830.30975133146501        8.1929084840751436       -167.25813487921883        5922.1343354527744     
   850.30975133146501        8.1300240724237671       -169.37278009628471        6091.5071155490587     
   870.30975133146501        8.0678015266904808       -171.32740478866808        6262.8345203377266     
   890.30975133146501        8.0062795425297910       -173.13641919753778        6435.9709395352647     
   910.30975133146501        7.9454465660959634       -174.83889681093746        6610.8098363462022     
   930.30975133146501        7.8852398466348159       -176.48205887491582        6787.2918952211185     
   950.30975133146501        7.8255719525796774       -178.10066001194019        6965.3925552330584     
   970.30975133146501        7.7663609377807008       -179.70911574776952        7145.1016709808282     
   990.30975133146501        7.7075495491602712       -181.30447566283533        7326.4061466436633     
   1010.3097513314650        7.6491111666375602       -182.87365373023613        7509.2798003738990     
   1030.3097513314651        7.5910462627900195       -184.40037539796282        7693.6801757718622     
   1050.3097513314651        7.5333740402917844       -185.87015580452712        7879.5503315763890     
   1070.3097513314651        7.4761223094686962       -187.27349625760769        8066.8238278339968     
   1090.3097513314651        7.4193157067750874       -188.60891154217632        8255.4327393761723     
   1110.3097513314651        7.3629802957400869       -189.87306392048598        8445.3058032966583     
   1130.3097513314651        7.3071488225416381       -191.05909936207200        8636.3649026587300     
   1150.3097513314651        7.2518603954409926       -192.15963056064632        8828.5245332193772     
   1170.3097513314651        7.1971563901058992       -193.16957287243801        9021.6941060918143     
   1190.3097513314651        7.1430756224226997       -194.08740402672922        9215.7815101185442     
   1210.3097513314651        7.0896503764295362       -194.91527768652389        9410.6967878050673     
   1230.3097513314651        7.0369034994650352       -195.65873336844825        9606.3555211735147     
   1250.3097513314651        6.9848460497585263       -196.32654643242847        9802.6820676059433     
   1270.3097513314651        6.9334745334905339       -196.93116762571518        9999.6132352316581     
   1290.3097513314651        6.8827658310099622       -197.49059507964603        10197.103830311304     
   1310.3097513314651        6.8326715169288654       -198.02940796395478        10395.133238275259     
   1316.8633513314651        6.8163205140932615       -198.20478532496372        10593.338023600223     
   1323.8101673314650        6.7990573080930563       -198.39069416218263        10791.728717762406     
   1329.7010672994650        6.7844655640886522       -198.54923648269326        10990.277954245099     
   1335.9454212655451        6.7690488584025346       -198.71935701625361        11188.997311261353     
   1342.5644364695900        6.7527603704147863       -198.90310297414186        11387.900414235495     
   1349.5805925858774        6.7355500406082953       -199.10258647801825        11587.003000713514     
   1357.0177180691421        6.7173645742617136       -199.31967307367162        11786.322673787185     
   1364.9010710814027        6.6981476818797718       -199.55563325473585        11985.878307041921     
   1373.2574252743991        6.6778405765194710       -199.81082106732674        12185.689128109248     
   1382.1151607189752        6.6563827022297488       -200.08443416951766        12385.773562278766     
   1391.5043602902258        6.6337126313430277       -200.37439098722496        12586.147953265991     
   1401.4569118357515        6.6097690434250120       -200.67733842834807        12786.825291694338     
   1412.0066164740088        6.5844916879833706       -200.98878339441526        12987.814075088754     
   1423.1893033905615        6.5578222355340969       -201.30332685651749        13189.117401945272     
   1435.0429515221072        6.5297049332281700       -201.61497243361435        13390.732374378886     
   1447.6078185415456        6.5000869707483613       -201.91752125542388        13592.649895634309     
   1460.9265775821505        6.4689184106466495       -202.20501647943433        13794.854912113744     
   1475.0444621651916        6.4361516892052117       -202.47225546841781        13997.327167582162     
   1490.0094198232152        6.4017403878459973       -202.71541924944233        14200.042586831603     
   1505.8722749407202        6.3656368784969946       -202.93303080106114        14402.975617632665     
   1522.6869013652756        6.3277875773000707       -203.12785511568094        14606.103472748346     
   1540.5104053753043        6.2881088285441207       -203.32189142798796        14809.425364176333     
   1551.9174479417227        6.2628792521460435       -203.45181800354683        15012.877182179880     
   1559.6559856187810        6.2458323036323113       -203.54685947598981        15216.424041655870     
   1567.8588355564627        6.2278289537222182       -203.66067859547255        15420.084720251341     
   1576.5538564904052        6.2088050643049488       -203.80126827755834        15623.885988528900     
   1585.7705786803845        6.1886885275108794       -203.97637567893202        15827.862364207833     
   1595.5403042017624        6.1674001776048923       -204.19206829566460        16032.054432503497     
   1605.8962132544229        6.1448557067542033       -204.45159363800462        16236.506026141502     
   1616.8734768502432        6.1209682517981232       -204.75476543914479        16441.260791580647     
   1628.5093762618126        6.0956511920336940       -205.09794222213202        16646.358733802779     
   1640.8434296380760        6.0688206387332162       -205.47458997303889        16851.833323775820     
   1653.9175262169153        6.0403971222352748       -205.87627950303283        17057.709603278854     
   1667.7760685904850        6.0103061354487455       -206.29401647361249        17264.003619752468     
   1682.4661235064689        5.9784769610941018       -206.71993228276989        17470.723552035237     
   1698.0375817174117        5.9448386708994212       -207.14983490267724        17677.873386937914     
   1714.5433274210113        5.9093276444088296       -207.57368659597358        17885.447073533887     
   1732.0394178668269        5.8718960580768647       -207.97481514378629        18093.421888677673     
   1750.5852737393914        5.8325150178328879       -208.33412785881490        18301.756016536488     
   1770.2438809643097        5.7911718778295178       -208.63465147996425        18510.390668016451     
