 #              _____________________  _______________________             #
 #              ___  __ \__  __ \_  / / /_  /___  ____/_  ___/             #
 #              __  / / /_  /_/ /  / / /_  __/_  __/  _____ \              #
 #              _  /_/ /_  _, _// /_/ / / /_ _  /___  ____/ /              #
 #              /_____/ /_/ |_| \____/  \__/ /_____/  /____/               #
 #                                                                         #
  
 #        time                      T            heat flux [W.L-2]   in    x              directions   cumulative flux
 #-----------------------------------------------------------------------------------------------

   0.0000000000000000        20.000000000000000       -0.0000000000000000        0.0000000000000000     
   1.0000000000000000        20.000000000000004       -6.7785776991513598E-012   6.7785776991513598E-012
   1.9540000000000002        20.000000000000000       -5.1969095693494387E-011   5.8747673392645743E-011
   2.8641160000000001        19.999999999999982       -2.2708235292158402E-010   2.8583002631422977E-010
   3.8288389600000006        19.999999999999897       -9.3544372248312140E-010   1.2212737487973512E-009
   4.8514452976000007        19.999999999999549       -3.5011353816149389E-009   4.7224091304122901E-009
   5.9354080154560007        19.999999999998298       -1.1897533624997805E-008   1.6619942755410095E-008
   7.0844084963833609        19.999999999994177       -3.7098025984864250E-008   5.3717968740274345E-008
   8.3023490061663630        19.999999999981597       -1.0735459455032679E-007   1.6107256329060113E-007
   9.5933659465363448        19.999999999945608       -2.9113652291123326E-007   4.5220908620183442E-007
   10.961843903328527        19.999999999848338       -7.4600281166408502E-007   1.1982118978659193E-006
   12.412430537528239        19.999999999598334       -1.8183681555314003E-006   3.0165800533973199E-006
   13.950052369779934        19.999999998983906       -4.2397100061050612E-006   7.2562900595023811E-006
   15.579931511966731        19.999999997533294       -9.4993847030721242E-006   1.6755674762574504E-005
   17.307603402684734        19.999999994230805       -2.0531169759211110E-005   3.7286844521785615E-005
   19.138935606845820        19.999999986957956       -4.2941030462580932E-005   8.0227874984366553E-005
   21.080147743256571        19.999999971423417       -8.7142871592040227E-005   1.6737074657640678E-004
   23.137832607851966        19.999999939168813       -1.7197753777227153E-004   3.3934828434867834E-004
   25.318978564323086        19.999999873944823       -3.3069182157302487E-004   6.7004010592170327E-004
   27.630993278182473        19.999999745284644       -6.2057727540215852E-004   1.2906173813238618E-003
   30.081728874873424        19.999999497371952       -1.1381404218225456E-003   2.4287578031464072E-003
   32.679508607365833        19.999999030194111       -2.0424202853233952E-003   4.4711780884698019E-003
   35.433155123807786        19.999998168339847       -3.5899961767779831E-003   8.0611742652477846E-003
   38.352020431236255        19.999996610465534       -6.1863250525439773E-003   1.4247499317791762E-002
   41.446017657110431        19.999993849214270       -1.0459263154217616E-002   2.4706762472009376E-002
   44.725654716537058        19.999989047023014       -1.7361858612153790E-002   4.2068621084163163E-002
   48.202069999529286        19.999980847623789       -2.8312583788975727E-002   7.0381204873138897E-002
   51.887070199501046        19.999967096046124       -4.5381870036900598E-002  0.11576307491003950     
   55.793170411471110        19.999944431622833       -7.1533807204126096E-002  0.18729688211416559     
   59.933636636159378        19.999907709185038      -0.11093082139490050       0.29822770350906608     
   64.322530834328944        19.999849193915804      -0.16930668479125946       0.46753438830032557     
   68.974758684388689        19.999757466210269      -0.25440903137892795       0.72194341967925357     
   73.906120205452012        19.999615965774368      -0.37650647360177164        1.0984498932810252     
   79.133363417779137        19.999401100879663      -0.54894747816033207        1.6473973714413572     
   84.674241222845893        19.999079851239266      -0.78874870340822956        2.4361460748495869     
   90.547571696216650        19.998606803484630       -1.1171802165250642        3.5533262913746508     
   96.773301997989648        19.997920578533066       -1.5603049396990589        5.1136312310737093     
   103.37257611786903        19.996939641399166       -2.1494211547530946        7.2630523858268035     
   110.36780668494117        19.995557526291222       -2.9213514089288739        10.184403794755678     
   117.78275108603765        19.993637561778680       -3.9185201399200582        14.102923934675736     
   125.64259215119992        19.991007239404723       -5.1887669021758578        19.291690836851593     
   133.97402368027193        19.987452429717536       -6.7848528053633474        26.076543642214940     
   142.80534110108826        19.982711706374857       -8.7636344997303137        34.840178141945252     
   152.16653756715357        19.976471085123524       -11.184901749577095        46.025079891522346     
   162.08940582118279        19.968359513616218       -14.109899510759712        60.134979402282056     
   172.60764617045376        19.957945454873332       -17.599581043780923        77.734560446062972     
   183.75698094068099        19.944734888423085       -21.712662225319885        99.447222671382860     
   195.57527579712186        19.928171008137920       -26.503566236240712        125.95078890762358     
   208.10266834494917        19.907635826864833       -32.020360059545304        157.97114896716889     
   221.38170444564611        19.882453810216866       -38.302788380457663        196.27393734762654     
   235.45748271238489        19.851897562567963       -45.380506196285772        241.65444354391232     
   250.37780767512800        19.815195485737576       -53.271599370144912        294.92604291405723     
   266.19335213563568        19.771541233466905       -61.981464005301802        356.90750691935904     
   282.95782926377382        19.720104699965571       -71.502092955970042        428.40959987532909     
   300.72817501960026        19.660044214121374       -81.811793348320109        510.22139322364922     
   319.56474152077629        19.590519565730649       -92.875334900971467        603.09672812462065     
   339.53150201202288        19.510704976906744       -104.64460465837891        707.74133278299951     
   359.49826250326947        19.425255872840491       -116.36477285493734        824.10610563793682     
   380.66302862399084        19.328924142750058       -128.64675376737719        952.75285940531398     
   399.71131813264009        19.237978044294728       -139.53365732810406        1092.2865167334180     
   416.85477869042444        19.152981242684657       -149.16504774219766        1241.4515644756157     
   433.99823924820879        19.065125982962520       -158.60326602131013        1400.0548304969259     
   451.14169980599314        18.974689841890168       -167.82601175750639        1567.8808422544323     
   468.28516036377749        18.881940284873711       -176.81478381009379        1744.6956260645261     
   485.42862092156184        18.787134188926842       -185.55432995687258        1930.2499560213987     
   502.57208147934620        18.690518149341468       -194.03196780252335        2124.2819238239222     
   520.74414967059761        18.586351112852640       -202.71168522031917        2326.9936090442416     
   538.91621786184896        18.480698750037170       -211.07383538960929        2538.0674444338511     
   557.08828605310032        18.373817719441139       -219.10944183353627        2757.1768862673871     
   575.26035424435167        18.265952118767153       -226.81197556373823        2983.9888618311252     
   593.43242243560303        18.157332017274317       -234.17809899690178        3218.1669608280272     
   612.69481471832955        18.041600643716563       -241.60801128883125        3459.7749721168584     
   633.11295053801962        17.918535058313303       -249.06238835266348        3708.8373604695221     
   654.75617450689106        17.787942237249887       -256.50109614334588        3965.3384566128680     
   673.10962843249411        17.677256280463311       -262.48622224563422        4227.8246788585020     
   691.46308235809715        17.566766942007259       -268.16197783377936        4495.9866566922810     
   707.98119089113982        17.467575245932117       -273.02999454496398        4769.0166512372452     
   722.84748857087823        17.378562135099024       -277.22456832098311        5046.2412195582283     
   737.71378625061664        17.289860501861355       -281.24002869883333        5327.4812482570615     
   752.58008393035504        17.201517995104730       -285.08288340268194        5612.5641316597430     
   767.44638161009345        17.113579258826963       -288.75850167788997        5901.3226333376333     
   782.31267928983186        17.026086999634416       -292.27116805823090        6193.5938013958639     
   797.17897696957027        16.939082598429355       -295.62432065942465        6489.2181220552884     
   812.04527464930868        16.852606289988497       -298.82087776292133        6788.0389998182100     
   826.91157232904709        16.766696990217081       -301.86357744097290        7089.9025772591831     
   841.77787000878550        16.681391996958343       -304.75517907477121        7394.6577563339542     
   857.53614554930823        16.591688960261806       -307.65455937906876        7702.3123157130231     
   873.29442108983096        16.502743591677184       -310.39288525572471        8012.7052009687477     
   887.47686907630145        16.423330356619083       -312.73119013294337        8325.4363911016917     
   901.65931706277195        16.344574135455694       -314.94891148076488        8640.3853025824574     
   915.84176504924244        16.266488518236617       -317.05328821905317        8957.4385908015101     
   930.02421303571293        16.189080117947121       -319.05324519822199        9276.4918359997318     
   944.20666102218343        16.112347784910448       -320.95919727653177        9597.4510332762638     
   958.38910900865392        16.036282482368946       -322.78264337071460        9920.2336766469780     
   973.42250387431261        15.956381897536941       -324.63717179697898        10244.870848443958     
   989.35790243191082        15.872471012069798       -326.53155153772025        10571.402399981678     
   1006.2494249029650        15.784355395858409       -328.47671762817390        10899.879117609853     
   1023.1409473740191        15.697016735470569       -330.37176485108745        11230.250882460941     
   1040.0324698450731        15.610406157849344       -332.22331169793603        11562.474194158878     
   1056.9239923161272        15.524484707790583       -334.03202807908258        11896.506222237960     
   1073.8155147871812        15.439225651852169       -335.79461510367167        12232.300837341632     
   1091.7205286064986        15.349579182069755       -337.60449103823680        12569.905328379869     
   1110.6998432549751        15.255369439168252       -339.44877515679252        12909.354103536662     
   1129.6791579034516        15.161984298890868       -341.21128839470583        13250.565391931368     
   1148.6584725519281        15.069440767823643       -342.88625078067878        13593.451642712047     
   1167.6377872004045        14.977758046266027       -344.47120632536041        13937.922849037408     
   1186.6171018488810        14.886952657044263       -345.96741498579121        14283.890264023199     
   1205.5964164973575        14.797036240415181       -347.37856828557528        14631.268832308775     
   1224.5757311458340        14.708015251713807       -348.70945765120706        14979.978289959981     
   1243.5550457943104        14.619891941532032       -349.96486048616441        15329.943150446146     
   1262.5343604427869        14.532665953184699       -351.14873061812619        15681.091881064272     
   1282.6524339701718        14.441212823440512       -352.32671471772983        16033.418595782003     
   1303.9775919091999        14.345400170927348       -353.49182806449147        16386.910423846493     
   1325.3027498482279        14.250712246166430       -354.57515310416636        16741.485576950661     
   1346.6279077872559        14.157140196963947       -355.58178450977834        17097.067361460438     
   1369.2325752026256        14.059182308575210       -356.57377962062640        17453.641141081065     
   1393.1935226629175        13.956679043048622       -357.55704058930240        17811.198181670366     
   1418.5921269708269        13.849443827460913       -358.54371801039355        18169.741899680761     
   1432.3764575008156        13.791648671184296       -359.06627054918408        18528.808170229946     
   1446.9878478626035        13.730820548047360       -359.60982902787117        18888.417999257817     
   1461.5992382243915        13.670408457052382       -360.14587406997526        19248.563873327792     
   1476.2106285861794        13.610395627342379       -360.67543911759680        19609.239312445388     
   1490.8220189479673        13.550769107278507       -361.19749684590056        19970.436809291288     
   1505.4334093097552        13.491521102155451       -361.70912852251678        20332.145937813806     
   1520.0447996715432        13.432649614793938       -362.20596244282075        20694.351900256628     
   1534.6561900333311        13.374158406703014       -362.68273210060272        21057.034632357230     
   1549.2675803951190        13.316056417288102       -363.13383250266349        21420.168464859893     
   1563.8789707569069        13.258356890823778       -363.55373123051032        21783.722196090403     
   1579.3670445404023        13.197667194326220       -363.95795504431226        22147.680151134715     
   1595.7844027509072        13.133892259101843       -364.33483017407900        22512.014981308796     
   1613.1868024540424        13.066947515835922       -364.67149390200592        22876.686475210801     
   1631.6333461393658        12.996759699964702       -364.95465377234552        23241.641128983149     
   1651.1866824458086        12.923264282113575       -365.17277582155390        23606.813904804701     
   1668.7846851216070        12.857868219063938       -365.30626384799581        23972.120168652698     
   1686.3826877974054        12.793229440753860       -365.38389454313375        24337.504063195833     
   1705.0365706337518        12.725556110631411       -365.41515001540159        24702.919213211233     
   1724.8096864402789        12.654743422599591       -365.40731665678629        25068.326529868020     
   1745.7691891951977        12.580661726795938       -365.37468215618867        25433.701212024207     
   1767.9862621154116        12.503143762519144       -365.34024928941830        25799.041461313624     
   1791.5363594108385        12.421964544051454       -365.34018289965246        26164.381644213277     
   1816.4994625439908        12.336843178161539       -365.41091451205580        26529.792558725334     
   1841.4625656771432        12.252489410728046       -365.56172261827084        26895.354281343603     
   1866.4256688102955        12.168788808550492       -365.78187489903740        27261.136156242639     
   1892.8865581314371        12.080739719961748       -366.06155917290482        27627.197715415543     
   1920.9351008118472        11.988174006197534       -366.36604853376230        27993.563763949307     
   1950.6665560530819        11.890987126552510       -366.65506316636345        28360.218827115670     
   1980.3980112943166        11.794815815690793       -366.88822094951234        28727.107048065183     
   2010.1294665355513        11.699717540526358       -367.06473581213260        29094.171783877315     
   2039.8609217767860        11.605712995718456       -367.19552179582013        29461.367305673135     
   2069.5923770180207        11.512804292593710       -367.28831249132196        29828.655618164456     
   2099.3238322592551        11.420988850222013       -367.34571887686502        30196.001337041322     
   2130.8391748149638        11.324888324066645       -367.36490366936579        30563.366240710686     
   2162.3545173706725        11.230012280748262       -367.33901273922231        30930.705253449909     
   2193.8698599263812        11.136304386131366       -367.29208840391090        31297.997341853821     
   2225.3852024820899        11.043661848077948       -367.25236861095209        31665.249710464774     
   2258.7914655911413        10.946503981285785       -367.24579286882567        32032.495503333601     
   2294.2021044867356        10.844565399167706       -367.27457478650933        32399.770078120109     
   2329.6127433823299        10.743663784732725       -367.30197359437580        32767.072051714484     
   2365.0233822779242        10.643887753449189       -367.28081942010698        33134.352871134593     
   2400.4340211735184        10.545397926609166       -367.16571902352774        33501.518590158121     
   2435.8446600691127        10.448389342599917       -366.92073883555219        33868.439328993671     
   2471.2552989647070        10.353059440964804       -366.52347698178636        34234.962805975454     
   2508.7905761940369        10.254056888368240       -365.93404523794919        34600.896851213402     
   2546.3258534233669        10.157093185343687       -365.23878722883887        34966.135638442240     
   2580.1076029297637        10.071351516748836       -364.58689899292858        35330.722537435169     
   2615.9162574065444        9.9819165755112991       -363.93560914669541        35694.658146581867     
   2651.7249118833251        9.8935960957281033       -363.39104376646964        36058.049190348334     
   2689.6820856287127        9.8008792396954263       -362.95782517290110        36421.007015521238     
   2727.6392593741002        9.7088316342249321       -362.65317049996395        36783.660186021203     
   2765.5964331194878        9.6173867934467285       -362.42582172242942        37146.086007743630     
   2803.5536068648753        9.5266208559264101       -362.21217605854599        37508.298183802173     
   2841.5107806102628        9.4367053101073370       -361.95288981592029        37870.251073618092     
   2881.7453847803736        9.3425776227486228       -361.58567002691348        38231.836743645006     
   2921.9799889504843        9.2497996728707150       -361.12232688680558        38592.959070531811     
   2962.2145931205951        9.1583828607540472       -360.61040991658462        38953.569480448394     
   3002.4491972907058        9.0682798039871457       -360.07722568460474        39313.646706132997     
   3042.6838014608165        8.9794207256368725       -359.53670745088976        39673.183413583887     
   3082.9184056309273        8.8917654204496976       -358.98504404034225        40032.168457624226     
   3125.5670860512450        8.8001547737276162       -358.38136127656156        40390.549818900785     
   3168.2157664715628        8.7097112259221809       -357.79310856134919        40748.342927462138     
   3210.8644468918806        8.6199900977318684       -357.35257266760118        41105.695500129739     
   3247.0305278883097        8.5442192847696354       -357.09047191513037        41462.785972044869     
   3285.3665737445249        8.4642755275306669       -356.85002555153005        41819.635997596401     
