 #              _____________________  _______________________             #
 #              ___  __ \__  __ \_  / / /_  /___  ____/_  ___/             #
 #              __  / / /_  /_/ /  / / /_  __/_  __/  _____ \              #
 #              _  /_/ /_  _, _// /_/ / / /_ _  /___  ____/ /              #
 #              /_____/ /_/ |_| \____/  \__/ /_____/  /____/               #
 #                                                                         #
  
 #        time                      T            heat flux [W.L-2]   in    x              directions   cumulative flux
 #-----------------------------------------------------------------------------------------------

   0.0000000000000000        15.000000000000000       -0.0000000000000000        0.0000000000000000     
   1.0000000000000000        14.783040860632552       -90.208585854425124        90.208585854425124     
   1.9540000000000002        14.589135865671125       -168.37778138724903        258.58636724167417     
   2.8641160000000001        14.415046189559000       -236.44015025507696        495.02651749675113     
   3.8288389600000006        14.241548141838601       -302.03967272489018        797.06619022164136     
   4.8514452976000007        14.068914810863804       -364.97037038615849        1162.0365606077999     
   5.9354080154560007        13.897391602214405       -425.05093868922381        1587.0874992970237     
   7.0844084963833609        13.727191649820051       -482.12793511923110        2069.2154344162545     
   8.3023490061663630        13.558491815916673       -536.07843971409034        2605.2938741303451     
   9.5933659465363448        13.391429442388640       -586.81206970609696        3192.1059438364418     
   10.961843903328527        13.226099997852776       -634.27224716937917        3826.3781910058210     
   12.412430537528239        13.062555737058508       -678.43664290780043        4504.8148339136214     
   13.950052369779934        12.900805452391907       -719.31675079413856        5224.1315847077603     
   15.579931511966731        12.740815352858723       -756.95658312359592        5981.0881678313563     
   17.307603402684734        12.582511056071976       -791.43051740868452        6772.5186852400411     
   19.138935606845820        12.425780626408720       -822.84036600813749        7595.3590512481787     
   21.080147743256571        12.270478541119795       -851.31177924172334        8446.6708304899021     
   23.137832607851966        12.116430419569859       -876.99012720829262        9323.6609576981955     
   25.318978564323086        11.963438312706518       -900.03603250758295        10223.696990205779     
   27.630993278182473        11.811286323629956       -920.62074298781351        11144.317733193593     
   30.081728874873424        11.659746318257874       -938.92153873669918        12083.239271930292     
   32.679508607365833        11.508583488886813       -955.11736001399152        13038.356631944283     
   35.433155123807786        11.357561552868450       -969.38482304239096        14007.741454986673     
   38.352020431236255        11.206447402088244       -981.89476006770872        14989.636215054383     
   41.446017657110431        11.055015063506179       -992.80938148095549        15982.445596535339     
   44.725654716537058        10.903048882646290       -1002.2801144955134        16984.725711030853     
   48.202069999529286        10.750345895902392       -1010.4461287610310        17995.171839791885     
   51.887070199501046        10.596717409058357       -1017.4335182269639        19012.605358018849     
   55.793170411471110        10.441989844172969       -1023.3550739209786        20035.960431939828     
   59.933636636159378        10.286004951604008       -1028.3105565867313        21064.270988526558     
   64.322530834328944        10.128619506440941       -1032.3873626974462        22096.658351224003     
   68.974758684388689        9.9697046184788931       -1035.6614723558532        23132.319823579855     
   73.906120205452012        9.8091447830318916       -1038.1985719875884        24170.518395567444     
   79.133363417779137        9.6468367884467678       -1040.0552566144572        25210.573652181902     
   84.674241222845893        9.4826885779835539       -1041.2802333931127        26251.853885575016     
   90.547571696216650        9.3166181418831915       -1041.9154674173501        27293.769352992367     
   96.773301997989648        9.1485524928719570       -1041.9972301239247        28335.766583116292     
   103.37257611786903        8.9784267574356065       -1041.5570281263908        29377.323611242682     
   110.36780668494117        8.8061833975676542       -1040.6224046923483        30417.946015935031     
   117.78275108603765        8.6317715641879040       -1039.2176168101757        31457.163632745207     
   125.64259215119992        8.4551465741570695       -1037.3641978785829        32494.527830623789     
   133.97402368027193        8.2762694973600279       -1035.0814199376568        33529.609250561443     
   142.80534110108826        8.0951068379485438       -1032.3866707275222        34561.995921288966     
   152.16653756715357        7.9116302936596110       -1029.2957604666474        35591.291681755611     
   162.08940582118279        7.7258165783341495       -1025.8231717860531        36617.114853541665     
   172.60764617045376        7.5376472946717374       -1021.9822643037703        37639.097117845435     
   183.75698094068099        7.3471088463746819       -1017.7854432773401        38656.882561122773     
   195.57527579712186        7.1541923808458936       -1013.2442998767084        39670.126860999480     
   208.10266834494917        6.9588937553473835       -1008.3697289954581        40678.496589994938     
   221.38170444564611        6.7612135209463444       -1003.1720291964617        41681.668619191398     
   235.45748271238489        6.5611569196858346       -997.66098834828597        42679.329607539687     
   250.37780767512800        6.3587338912627738       -991.84595770629323        43671.175565245983     
   266.19335213563568        6.1539590861320814       -985.73591657719737        44656.911481823183     
   282.95782926377382        5.9468518824344780       -979.33952923238598        45636.251011055567     
   300.72817501960026        5.7374364045086708       -972.66519536768635        46608.916206423251     
   319.56474152077629        5.5257415410290545       -965.72109511855831        47574.637301541807     
   339.53150201202288        5.3118009610302792       -958.51522941136943        48533.152530953179     
   359.53150201202288        5.1079469910674700       -951.18791641556265        49484.340447368741     
   379.53150201202288        4.9132620132605647       -943.94962408700326        50428.290071455747     
   399.53150201202288        4.7268164010919733       -936.86713408552885        51365.157205541276     
   419.53150201202288        4.5478774380939049       -929.95840668305505        52295.115612224334     
   439.53150201202288        4.3758310397950861       -923.22560633466105        53218.341218558991     
   459.53150201202288        4.2101470065837567       -916.66544035536117        54135.006658914353     
   479.53150201202288        4.0503601612078288       -910.27262636519913        55045.279285279554     
   499.53150201202288        3.8960582472922134       -904.04116650965193        55949.320451789208     
   519.53150201202288        3.7468732572355710       -897.96486796149179        56847.285319750699     
   539.53150201202288        3.6024747972864795       -892.03757821082979        57739.322897961531     
   559.53150201202288        3.4625648121239978       -886.25329968752612        58625.576197649054     
   579.53150201202288        3.3268732884211962       -880.60624730903851        59506.182444958089     
   599.53150201202288        3.1951546981629311       -875.09087632860042        60381.273321286688     
   619.53150201202288        3.0671850187645147       -869.70189359667734        61250.975214883365     
   639.53150201202288        2.9427592127718012       -864.43425913330714        62115.409474016669     
   659.53150201202288        2.8216890796059295       -859.28318191892845        62974.692655935600     
   679.53150201202288        2.7038014122189282       -854.24411224205357        63828.936768177657     
   699.53150201202288        2.5889364061453732       -849.31273205780178        64678.249500235455     
   719.53150201202288        2.4769462792357251       -844.48494428453500        65522.734444519992     
   739.53150201202288        2.3676940685244943       -839.75686163851799        66362.491306158510     
   759.53150201202288        2.2610525769767520       -835.12479539656954        67197.616101555075     
   779.53150201202288        2.1569034477729647       -830.58524433878108        68028.201345893860     
   799.53150201202288        2.0551363476821889       -826.13488403130907        68854.336229925175     
   819.53150201202288        1.9556482441833807       -821.77055654700928        69676.106786472184     
   839.53150201202288        1.8583427635029770       -817.48926067938646        70493.596047151572     
   859.53150201202288        1.7631296187760235       -813.28814267654263        71306.884189828110     
   879.53150201202288        1.6699240992075315       -809.16448750226812        72116.048677330371     
   899.53150201202288        1.5786466124859735       -805.11571061832990        72921.164387948695     
   919.53150201202288        1.4892222738403249       -801.13935027339744        73722.303738222094     
   939.53150201202288        1.4015805360811482       -797.23306027858280        74519.536798500674     
   959.53150201202288        1.3156548557606169       -793.39460324631398        75312.931401746988     
   979.53150201202288        1.2313823912543167       -789.62184426753538        76102.553246014519     
   999.53150201202288        1.1487037291316184       -785.91274500159284        76888.465991016114     
   1019.5315020120229        1.0675626356595567       -782.26535815323905        77670.731349169349     
   1039.5315020120229       0.98790583069195748       -778.67782231178842        78449.409171481137     
   1059.5315020120229       0.90968278154301530       -775.14835712835873        79224.557528609497     
   1079.5315020120229       0.83284551474219404       -771.67525880824462        79996.232787417743     
   1099.5315020120229       0.75734844382324074       -768.25689589670503        80764.489683314445     
   1119.5315020120229       0.68314821152075034       -764.89170533770357        81529.381388652153     
   1139.5315020120229       0.61020354493851359       -761.57818878645503        82290.959577438611     
   1159.5315020120229       0.53847512241938245       -758.31490915787981        83049.274486596492     
   1179.5315020120229       0.46792545099022864       -755.10048739429897        83804.374973990794     
   1199.5315020120229       0.39851875338102727       -751.93359943688290        84556.308573427683     
   1219.5315020120229       0.33022086372669956       -748.81297338647062        85305.121546814160     
   1239.5315020120229       0.26299913115635865       -745.73738684043587        86050.858933654599     
   1259.5315020120229       0.19682233055893594       -742.70566439324455        86793.564598047844     
   1279.5315020120229       0.13166057988831792       -739.71667528928288        87533.281273337125     
   1299.5315020120229        6.7485263436568910E-002  -736.76933121737102        88270.050604554490     
   1319.5315020120229        4.2689605615983117E-003  -733.86258423718152        89003.913188791674     
   1339.5315020120229       -5.8014620593174082E-002  -771.68899563163097        89775.602184423304     
   1359.5315020120229      -0.11939070480420488       -784.95472201154871        90560.556906434853     
   1379.5315020120229      -0.17988350727497060       -798.05539916394139        91358.612305598799     
   1399.5315020120229      -0.18494057740439340       -786.16380255450281        92144.776108153295     
   1419.5315020120229      -0.19104740422278255       -778.56567534652493        92923.341783499825     
   1439.5315020120229      -0.21236640496455678       -777.54389211636612        93700.885675616199     
   1459.5315020120229      -0.23145312436030269       -775.47269765467252        94476.358373270865     
   1479.5315020120229      -0.24862866135302761       -772.49707116349521        95248.855444434361     
   1499.5315020120229      -0.26417194212252471       -768.79296712695248        96017.648411561313     
   1519.5315020120229      -0.27832102394907066       -764.53864635405500        96782.187057915362     
   1539.5315020120229      -0.29127765318174381       -759.89955181366736        97542.086609729027     
   1559.5315020120229      -0.30321277512503197       -755.02110512820627        98297.107714857237     
   1579.5315020120229      -0.31427190665482468       -750.02626387021451        99047.133978727448     
   1599.5315020120229      -0.32457994715248162       -745.01585955952430        99792.149838286976     
   1619.5315020120229      -0.33424533672046142       -740.07048164451794        100532.22031993150     
   1639.5315020120229      -0.34336362067496212       -735.25319407671964        101267.47351400822     
   1659.5315020120229      -0.35202053805825562       -730.61274737808094        101998.08626138630     
   1679.5315020120229      -0.36029477016292633       -726.18723124484211        102724.27349263114     
   1699.5315020120229      -0.36826048850537269       -722.00834251071331        103446.28183514185     
   1719.5315020120229      -0.37598984212027686       -718.10665661523717        104164.38849175710     
   1739.5315020120229      -0.38355552526428444       -714.51851725967458        104878.90700901677     
   1759.5315020120229      -0.39103356608711448       -711.29541650193846        105590.20242551870     
   1779.5315020120229      -0.39850646349077307       -708.51701209570751        106298.71943761440     
   1799.5315020120229      -0.40606674657562203       -706.30911882659746        107005.02855644100     
   1819.5315020120229      -0.41382088268767220       -704.86779322069651        107709.89634966169     
   1839.5315020120229      -0.42189311050855072       -704.48918871112460        108414.38553837282     
   1859.5315020120229      -0.43042805659500966       -705.60046068002623        109119.98599905285     
   1879.5315020120229      -0.43958973575307925       -708.77686392469616        109828.76286297754     
   1899.5315020120229      -0.44955285176274501       -714.71246335297644        110543.47532633052     
   1919.5315020120229      -0.46048134978474603       -724.09397469011299        111267.56930102063     
   1939.5315020120229      -0.47249197227541379       -737.34107407556269        112004.91037509619     
   1959.5315020120229      -0.48561067416376552       -754.27260223721419        112759.18297733340     
   1979.5315020120229      -0.49974393938786260       -773.91558478061449        113533.09856211401     
   1999.5315020120229      -0.51468901420793045       -794.69381323068285        114327.79237534470     
   2019.5315020120229      -0.53018338880743188       -814.96441431592018        115142.75678966062     
   2039.5315020120229      -0.54596535832426840       -833.54525207489803        115976.30204173551     
   2059.5315020120229      -0.56182499424828369       -849.78108983804270        116826.08313157356     
   2079.5315020120229      -0.57762310392072302       -863.55160483919292        117689.63473641274     
   2099.5315020120229      -0.59328847787652883       -875.05273859901945        118564.68747501176     
   2119.5315020120229      -0.60088609831546180       -892.43583098116801        119457.12330599292     
   2139.5315020120229      -0.60814942430537799       -908.70388441565899        120365.82719040859     
   2159.5315020120229      -0.61530786929902659       -924.48941063549364        121290.31660104408     
   2179.5315020120229      -0.62227093189061666       -973.08849377154309        122263.40509481562     
   2199.5315020120229      -0.62896245992191002       -1028.5068654370134        123291.91196025263     
   2219.5315020120229      -0.63531950729399578       -1072.1394859819441        124364.05144623457     
   2239.5315020120229      -0.64129166748113797       -1107.5564476950017        125471.60789392957     
   2259.5315020120229      -0.64684032150852677       -1137.2339656515360        126608.84185958111     
   2279.5315020120229      -0.65193971016985452       -1162.8852453067034        127771.72710488782     
   2299.5315020120229      -0.65657570061760617       -1185.6791756636439        128957.40628055145     
   2319.5315020120229      -0.66074442099533293       -1206.4231534021287        130163.82943395358     
   2339.5315020120229      -0.66445183433830390       -1225.6672023069289        131389.49663626050     
   2359.5315020120229      -0.66771244638159821       -1243.7723039318366        132633.26894019233     
   2379.5315020120229      -0.67054774308844634       -1260.9567724726157        133894.22571266495     
   2399.5315020120229      -0.67298448285566392       -1277.3286400429308        135171.55435270787     
   2419.5315020120229      -0.67505298357732313       -1292.9090649782684        136464.46341768614     
   2439.5315020120229      -0.67678552952278503       -1307.6499374889418        137772.11335517510     
   2459.5315020120229      -0.67821498793810309       -1321.4477151249828        139093.56107030009     
   2479.5315020120229      -0.67937368325728897       -1334.1548037198731        140427.71587401995     
   2499.5315020120229      -0.68029253829878211       -1345.5893395750777        141773.30521359504     
   2519.5315020120229      -0.68100046285036731       -1355.5439230895502        143128.84913668458     
   2539.5315020120229      -0.68152395232497198       -1363.7936413939433        144492.64277807853     
   2559.5315020120229      -0.68188685146052419       -1370.1035621849101        145862.74634026343     
   2579.5315020120229      -0.68211023771278112       -1374.2357634906550        147236.98210375410     
   2599.5315020120229      -0.68221238323792355       -1375.9558752837986        148612.93797903790     
   2619.5315020120229      -0.68220876085851423       -1375.0390456495827        149987.97702468748     
   2639.5315020120229      -0.68211206657915613       -1371.2752071857117        151359.25223187319     
   2659.5315020120229      -0.68193223825382765       -1364.4735112605990        152723.72574313378     
   2679.5315020120229      -0.68167645678937228       -1354.4658231340193        154078.19156626781     
   2699.5315020120229      -0.68134912335072784       -1341.1092364500166        155419.30080271783     
   2719.5315020120229      -0.68095181474443689       -1324.9039072725823        156744.20470999042     
   2739.5315020120229      -0.68048323194236604       -1308.8054594324281        158053.01016942284     
   2759.5315020120229      -0.67993917780402269       -1293.2173018818792        159346.22747130471     
   2779.5315020120229      -0.67931263662455244       -1278.1357865387845        160624.36325784351     
   2799.5315020120229      -0.67869380444889527       -1263.8937952516851        161888.25705309518     
   2819.5315020120229      -0.67846387179344381       -1251.7403876843473        163139.99744077952     
   2839.5315020120229      -0.67851721267708587       -1241.1242640683893        164381.12170484790     
   2859.5315020120229      -0.67877327238778051       -1231.6401507192979        165612.76185556719     
