 #              _____________________  _______________________             #
 #              ___  __ \__  __ \_  / / /_  /___  ____/_  ___/             #
 #              __  / / /_  /_/ /  / / /_  __/_  __/  _____ \              #
 #              _  /_/ /_  _, _// /_/ / / /_ _  /___  ____/ /              #
 #              /_____/ /_/ |_| \____/  \__/ /_____/  /____/               #
 #                                                                         #
  
 #        time                      T            heat flux [W.L-2]   in    x              directions   cumulative flux
 #-----------------------------------------------------------------------------------------------

   0.0000000000000000        20.000000000000000       -0.0000000000000000        0.0000000000000000     
   1.0000000000000000        19.140981250572679       -265.83015293321188        265.83015293321188     
   1.9540000000000002        18.390460946572233       -492.20335975744052        758.03351269065240     
   2.8641160000000001        17.731198244879494       -685.56419232312055        1443.5977050137731     
   3.8288389600000006        17.087768263057349       -868.22569623259119        2311.8234012463645     
   4.8514452976000007        16.461576951959604       -1039.4440535812273        3351.2674548275918     
   5.9354080154560007        15.853774381473730       -1198.6540366903405        4549.9214915179327     
   7.0844084963833609        15.265239746906722       -1345.4696392664714        5895.3911307844046     
   8.3023490061663630        14.696573546395220       -1479.6810276742870        7375.0721584586918     
   9.5933659465363448        14.148097270852798       -1601.2479089710412        8976.3200674297332     
   10.961843903328527        13.619860631622462       -1710.2894954819774        10686.609562911710     
   12.412430537528239        13.111656021675019       -1807.0713416803030        12493.680904592013     
   13.950052369779934        12.623039583441672       -1891.9894340928843        14385.670338684897     
   15.579931511966731        12.153357960342667       -1965.5520218665529        16351.222360551450     
   17.307603402684734        11.701779559024754       -2028.3597751004693        18379.582135651919     
   19.138935606845820        11.267328962104814       -2081.0849394701122        20460.667075122030     
   21.080147743256571        10.848923019907271       -2124.4502086624907        22585.117283784522     
   23.137832607851966        10.445407122380704       -2159.2080520807876        24744.325335865309     
   25.318978564323086        10.055590211337652       -2186.1212086472324        26930.446544512542     
   27.630993278182473        9.6782772343088190       -2205.9449869581026        29136.391531470646     
   30.081728874873424        9.3122979542587103       -2219.4119007791087        31355.803432249755     
   32.679508607365833        8.9565312980671248       -2227.2190246731448        33583.022456922903     
   35.433155123807786        8.6099247303742779       -2230.0182889353628        35813.040745858263     
   38.352020431236255        8.2715084546136826       -2228.4097599338997        38041.450505792163     
   41.446017657110431        7.9404045456199093       -2222.9377861721641        40264.388291964329     
   44.725654716537058        7.6158313855735100       -2214.0897456630141        42478.478037627341     
   48.202069999529286        7.2971039886771072       -2202.2970176657554        44680.775055293096     
   51.887070199501046        6.9836309471771365       -2187.9377287157963        46868.712784008894     
   55.793170411471110        6.6749088066149636       -2171.3407918109410        49040.053575819838     
   59.933636636159378        6.3705146834437887       -2152.7907666028045        51192.844342422643     
   64.322530834328944        6.0700978821628997       -2132.5331114250116        53325.377453847657     
   68.974758684388689        5.7733711659973919       -2110.7794659883780        55436.156919836038     
   73.906120205452012        5.4801022021318753       -2087.7126861069669        57523.869605943008     
   79.133363417779137        5.1901055575141744       -2063.4914384193571        59587.361044362362     
   84.674241222845893        4.9032354805443799       -2038.2542446145037        61625.615288976864     
   90.547571696216650        4.6193795803244733       -2012.1229343498485        63637.738223326713     
   96.773301997989648        4.3384534167567068       -1985.4153929123356        65623.153616239055     
   103.37257611786903        4.0603959450358413       -1958.1147889700628        67581.268405209121     
   110.36780668494117        3.7851657161175272       -1930.1403761756123        69511.408781384729     
   117.78275108603765        3.5127660343235489       -1901.5694512564978        71412.978232641224     
   125.64259215119992        3.2431888551804580       -1872.4824424567523        73285.460675097973     
   133.97402368027193        2.9764063033346888       -1842.9669487267481        75128.427623824726     
   142.80534110108826        2.7124159897813165       -1813.0971754754478        76941.524799300169     
   152.16653756715357        2.4512317952363150       -1782.9380694855183        78724.462868785689     
   162.08940582118279        2.1928782579451074       -1752.5478091932039        80477.010677978891     
   172.60764617045376        1.9373870373274991       -1721.9793557801322        82198.990033759022     
   183.75698094068099        1.6847946264456573       -1691.2814434424349        83890.271477201459     
   195.57527579712186        1.4351408004088571       -1660.4992397082842        85550.770716909741     
   208.10266834494917        1.1884674959557706       -1629.6748105985328        87180.445527508273     
   221.38170444564611       0.94481794773870642       -1598.8474665638396        88779.292994072108     
   235.45748271238489       0.70423598421682954       -1568.0540311377529        90347.347025209863     
   250.37780767512800       0.46676542991643855       -1537.3290556790303        91884.676080888894     
   266.19335213563568       0.23244958472577304       -1506.7049939175092        93391.381074806399     
   282.95782926377382        1.3307636053556671E-003  -1476.2123451445357        94867.593419950936     
   300.72817501960026      -0.22655011317692875       -1971.6188368529361        96839.212256803876     
   319.56474152077629      -0.45115388554060143       -2606.0058777648342        99445.218134568713     
   335.53814991377357      -0.61921691273437007       -1503.2675481581605        100948.48568272687     
   352.46996281035069      -0.59602502796121193       -1462.1622227150508        102410.64790544192     
   369.40177570692782      -0.59327377927110214       -1430.5277597924216        103841.17566523435     
   386.33358860350495      -0.59177968555127869       -1413.0391436038731        105254.21480883822     
   403.26540150008208      -0.58533326861343404       -1411.9219784141253        106666.13678725236     
   420.19721439665921      -0.57239587188989915       -1426.7141055037123        108092.85089275606     
   437.12902729323633      -0.55084391085407591       -1449.4900313447681        109542.34092410083     
   454.06084018981346      -0.52976793450630777       -1469.6531190963058        111011.99404319713     
   470.99265308639059      -0.51175854655774344       -1474.6739563779734        112486.66799957510     
   487.92446598296772      -0.49796618330906123       -1460.7989823800747        113947.46698195518     
   504.85627887954485      -0.48811725062089217       -1431.3699707027918        115378.83695265796     
   521.78809177612197      -0.48373543287057813       -1387.9251893933426        116766.76214205130     
   538.71990467269904      -0.47978598709547982       -1346.8065901387790        118113.56873219008     
   555.65171756927612      -0.47684356516845938       -1300.6998310567510        119414.26856324683     
   572.58353046585319      -0.47536480886875465       -1250.5845455911006        120664.85310883794     
   589.51534336243026      -0.47544716318300856       -1200.4527247186604        121865.30583355660     
   606.44715625900733      -0.47699654660774277       -1153.4309225461361        123018.73675610273     
   623.37896915558440      -0.47989824223530847       -1111.0313894631815        124129.76814556592     
   640.31078205216147      -0.48409352479865858       -1073.9429491780816        125203.71109474399     
   657.24259494873854      -0.48960208570568803       -1042.9745642837786        126246.68565902777     
   674.17440784531561      -0.49648996465299583       -1019.3586529948900        127266.04431202267     
   691.10622074189268      -0.55208514152070398       -1215.0851667331915        128481.12947875586     
   706.34485234881208      -0.72431334218468157       -968.88153983736595        129450.01101859323     
   720.05962079503956      -0.77674404591458013       -924.21374474817469        130374.22476334141     
   732.40291239664430      -0.83275041271288985       -899.67280546025609        131273.89756880165     
   744.74620399824903      -0.90284260349334955       -893.95196087094337        132167.84952967259     
   757.08949559985376      -0.99607074240426186       -908.37583174800034        133076.22536142060     
   769.43278720145850       -1.1185210727741861       -938.06400281088975        134014.28936423149     
   782.51667629915949       -1.2041968548836524       -1021.8093410562869        135036.09870528779     
   795.60056539686047       -1.2630497655144994       -1120.2883982670419        136156.38710355482     
   808.68445449456146       -1.2946424484379613       -1253.5885582575474        137409.97566181238     
   821.76834359226245       -1.3078242661404271       -1435.2381842127929        138845.21384602517     
   834.85223268996344       -1.3093301481584765       -1668.3259693708367        140513.53981539601     
   847.93612178766443       -1.3016521403395702       -1956.8145163246577        142470.35433172068     
   861.02001088536542       -1.2873940826322601       -2260.3086563018151        144730.66298802249     
   874.10389998306641       -1.2677219910509625       -2489.2406045818184        147219.90359260430     
   887.18778908076740       -1.2426203688864639       -2522.9352638238656        149742.83885642816     
   900.27167817846839       -1.2066681020970462       -2382.3897445252633        152125.22860095341     
   912.04717836639929       -1.1794673223580590       -2272.5250947299592        154397.75369568338     
   923.82267855433020       -1.1582332501035171       -2181.4840412269923        156579.23773691038     
   935.59817874226110       -1.1411280073813943       -2103.9526646272470        158683.19040153763     
   947.37367893019200       -1.1269451247733795       -2036.3815853567783        160719.57198689441     
   959.14917911812290       -1.1191990553390749       -1986.5025781950299        162706.07456508945     
   970.92467930605380       -1.1218224281601947       -1961.2551997058438        164667.32976479529     
   982.70017949398471       -1.1323337589767961       -1951.5193189607289        166618.84908375601     
   995.18220969319145       -1.1568347775357495       -1959.2278649258180        168578.07694868182     
   1007.6642398923982       -1.1952312590452714       -1974.5452591316071        170552.62220781343     
   1014.0550393543921       -1.2197127145400901       -1981.3602818728809        172533.98248968631     
   1015.4757020089639       -1.2253563292547551       -1982.7529569925487        174516.73544667885     
   1016.9816044228101       -1.2219629846286229       -1971.9673824056615        176488.70282908450     
   1018.5778609814870       -1.2183825835143560       -1960.6022605588557        178449.30508964337     
   1020.2698929336846       -1.2146025353062309       -1948.6243048380495        180397.92939448141     
   1022.0634468030140       -1.2106083505745535       -1935.9964454353608        182333.92583991677     
   1023.9646139045032       -1.2063830331113838       -1922.6766934597833        184256.60253337654     
   1025.9798510320816       -1.2019062078855287       -1908.6165064970685        186165.21903987360     
   1028.1160023873149       -1.1971528394980135       -1893.7583789917151        188058.97741886531     
   1030.3803228238621       -1.1920912924671050       -1878.0321833635951        189937.00960222891     
   1032.7805024866022       -1.1866802865393424       -1861.3494084566657        191798.35901068558     
   1035.3246929291067       -1.1808638946652783       -1843.5936650669744        193641.95267575255     
   1038.0215347981614       -1.1744635125660774       -1824.3920440093823        195466.34471976192     
   1040.7183766672160       -1.1678170630782609       -1804.8020802222297        197271.14679998416     
   1043.4152185362707       -1.1608009201998033       -1784.5820067706657        199055.72880675481     
   1046.1120604053253       -1.1532032802810019       -1763.3181229539030        200819.04692970871     
   1048.8089022743800       -1.1445962969239269       -1740.1761439271334        202559.22307363583     
   1051.5057441434346       -1.1332143665125587       -1711.6917856874795        204270.91485932333     
   1053.6632176386784       -1.0648053504196808       -1570.5475647126436        205841.46242403597     
   1055.8206911339221       -1.0491726153002896       -1531.2873423187380        207372.74976635471     
   1057.9781646291658       -1.0438633396353019       -1513.0552456830203        208885.80501203774     
   1060.1356381244095       -1.0404158412437192       -1499.2186683413577        210385.02368037909     
   1062.2931116196532       -1.0374593574426527       -1486.9433894242752        211871.96706980336     
   1064.4505851148970       -1.0347260886244294       -1475.5833055954517        213347.55037539880     
   1066.6080586101407       -1.0321450600801609       -1464.9098432070698        214812.46021860588     
   1068.7655321053844       -1.0296866240122116       -1454.7983407559932        216267.25855936186     
   1070.9230056006281       -1.0272052618327110       -1444.8705399481466        217712.12909931000     
   1073.2099275055866       -1.0247881652039545       -1435.0352559376608        219147.16435524766     
   1075.6340647248426       -1.0223676345159860       -1425.1494654023536        220572.31382065002     
   1078.2036501772538       -1.0199199689501299       -1415.1547450021089        221987.46856565212     
   1080.9274107568099       -1.0174367958080595       -1405.0229090950418        223392.49147474716     
   1083.8145969711393       -1.0149154436798282       -1394.7376535687004        224787.22912831587     
   1086.8750143583284       -1.0123557480910168       -1384.2884106139275        226171.51753892979     
   1090.1190567887488       -1.0097590219146955       -1373.6683418079572        227545.18588073776     
   1093.5577417649945       -1.0071277595186530       -1362.8737548968545        228908.05963563462     
   1097.2027478398149       -1.0044655972408447       -1351.9040347267360        230259.96367036135     
   1101.0664542791246       -1.0017773722020766       -1340.7617847076961        231600.72545506904     
   1105.1619831047929      -0.99906922842774237       -1329.4530786333094        232930.17853370236     
   1109.5032436600011      -0.99634875535772904       -1317.9877915646216        234248.16632526700     
   1114.1049798485219      -0.99340159397646011       -1305.8763952639179        235554.04272053091     
   1118.7067160370427      -0.99073926826880898       -1294.5380611438652        236848.58078167477     
   1123.3084522255635      -0.98825071893722916       -1283.7380806475651        238132.31886232234     
   1127.9101884140844      -0.98591080248524887       -1273.4134292606802        239405.73229158303     
   1132.5119246026052      -0.98371119623198278       -1263.5362407970979        240669.26853238014     
   1137.1136607911260      -0.98164728365108944       -1254.0875551346085        241923.35608751475     
   1141.7153969796468      -0.97971558532119618       -1245.0519351407220        243168.40802265547     
   1146.3171331681676      -0.97774046823089800       -1236.1802826927799        244404.58830534824     
   1150.9188693566884      -0.97594153175037179       -1227.7788909074752        245632.36719625571     
   1155.5206055452093      -0.97428278874921204       -1219.7764808556328        246852.14367711134     
   1160.1223417337301      -0.97274414442977641       -1212.1292745248338        248064.27295163617     
   1164.7240779222509      -0.97132035768973057       -1204.8232072896731        249269.09615892585     
   1169.3258141107717      -0.97000942602453455       -1197.8508372188724        250466.94699614472     
   1173.9275502992925      -0.96881019877896990       -1191.2065820809116        251658.15357822564     
   1178.5292864878134      -0.96772188393515080       -1184.8857205834277        252843.03929880908     
   1183.1310226763342      -0.96674394982631273       -1178.8841806278392        254021.92347943693     
   1187.7327588648550      -0.96587611217918290       -1173.1984989417183        255195.12197837865     
   1192.3344950533758      -0.96527767234961592       -1168.1724625921472        256363.29444097079     
   1197.2123354132077      -0.96449589849622275       -1162.6212894394885        257525.91573041028     
   1202.0901757730396      -0.96407604256868151       -1157.9182039092941        258683.83393431958     
   1207.2606865544615      -0.96351820726363813       -1152.7849834923297        259836.61891781192     
   1212.4311973358833      -0.96333916622694193       -1148.5360810134789        260985.15499882540     
   1217.9119387641906      -0.96307042792426023       -1143.9598897141559        262129.11488853957     
   1223.3926801924979      -0.96318835735932717       -1140.2845635839365        263269.39945212350     
   1229.2022661065037      -0.96343368572131094       -1136.7448568045504        264406.14430892805     
   1235.3604271753497      -0.96388606986615932       -1133.4987862940588        265539.64309522213     
   1241.8880779083265      -0.96460875392040435       -1130.6724556354475        266670.31555085757     
   1248.8073876852818      -0.96566894008835813       -1128.3995617100150        267798.71511256759     
   1256.1418560488546      -0.96714769668126543       -1126.8399781590779        268925.55509072664     
   1263.9163925142416      -0.96914666056187349       -1126.1911970105114        270051.74628773716     
   1272.1574011675518      -0.97180858036984907       -1126.7285600243185        271178.47484776145     
   1280.8928703400607      -0.97559363060716098       -1129.3681201262702        272307.84296788770     
   1289.6283395125695      -0.98035332878847214       -1134.0530697819329        273441.89603766962     
   1298.3638086850783      -0.98685149228530911       -1142.2517118773280        274584.14774954697     
   1307.0992778575871      -0.99582504214426915       -1155.3037698994772        275739.45151944645     
   1314.9612001128451       -1.0075513448278273       -1174.0223668361764        276913.47388628265     
   1322.0369301425771       -1.0240205229385431       -1201.9379267041988        278115.41181298683     
   1328.4050871693362       -1.0496981194008947       -1246.9768363205440        279362.38864930737     
   1334.1364284934193       -1.0924463511957772       -1322.4990094242075        280684.88765873155     
   1339.2946356850941       -1.1603401755238154       -1440.2111420216065        282125.09880075313     
   1343.9370221576014       -1.2454498800638418       -1581.6690859208629        283706.76788667397     
