 #              _____________________  _______________________             #
 #              ___  __ \__  __ \_  / / /_  /___  ____/_  ___/             #
 #              __  / / /_  /_/ /  / / /_  __/_  __/  _____ \              #
 #              _  /_/ /_  _, _// /_/ / / /_ _  /___  ____/ /              #
 #              /_____/ /_/ |_| \____/  \__/ /_____/  /____/               #
 #                                                                         #
  
 #        time                      T            heat flux [W.L-2]   in    x              directions   cumulative flux
 #-----------------------------------------------------------------------------------------------

   0.0000000000000000        4.6891999999999996       -6.9459274493888401        6.9459274493888401     
   1.0000000000000000        4.3845957823835517       -101.02598311676316        107.97191056615199     
   1.8999999999999999        4.1326322958144175       -176.74058549385941        284.71249606001140     
   2.7100000000000000        3.9222046424487296       -238.29430490792603        523.00680096793747     
   3.5200000000000000        3.7261371183459562       -294.03013015441644        817.03693112235396     
   4.3300000000000001        3.5432050719868244       -344.47800302039855        1161.5149341427525     
   5.1400000000000006        3.3722928262974294       -390.12397198341534        1551.6389061261680     
   5.9500000000000011        3.2123846651954322       -431.41235669154440        1983.0512628177123     
   6.7600000000000016        3.0625563032908643       -468.74829829688929        2451.7995611146016     
   7.5700000000000021        2.9219668941431820       -502.50048838480154        2954.3000494994030     
   8.3800000000000026        2.7898516009428809       -533.00393858523444        3487.3039880846372     
   9.1900000000000031        2.6655147316189893       -560.56270086883922        4047.8666889534766     
   10.000000000000004        2.5483234255642477       -585.45248164299846        4633.3191705964746     
   10.810000000000004        2.4376903301080000       -607.92602258896852        5241.2451931854430     
   11.668600000000005        2.3270287845275446       -629.34495465528414        5870.5901478407268     
   12.578716000000005        2.2165286219352973       -649.62200529555139        6520.2121531362782     
   13.488832000000006        2.1123965867626966       -667.67148690100021        7187.8836400372784     
   14.453554960000005        2.0083706241778856       -684.62412674631082        7872.5077667835894     
   15.476161297600006        1.9045923894436840       -700.41886201223110        8572.9266287958199     
   16.560124015456008        1.8011898197170140       -715.00472808705763        9287.9313568828766     
   17.709124496383367        1.6982733461956607       -728.34492958727026        10016.276286470147     
   18.858124977310727        1.6015875644423339       -739.76295369645641        10756.039240166603     
   20.076065487093729        1.5051920506839980       -750.05471240484565        11506.093952571449     
   21.367082427463711        1.4091582470917081       -759.20353663061610        12265.297489202065     
   22.735560384255891        1.3135382247175897       -767.20687885459938        13032.504368056663     
   24.104038341048071        1.2236659888616179       -773.68600956554405        13806.190377622208     
   25.554624975247783        1.1339430594192546       -779.17033191822850        14585.360709540437     
   27.092246807499478        1.0443965926229075       -783.67072535416696        15369.031434894603     
   28.629868639751173       0.96004080907992606       -786.99188368348530        16156.023318578089     
   30.259747781937971       0.87559215505701582       -789.47771563643107        16945.501034214521     
   31.987419672655975       0.79106870822942299       -791.14403612013109        17736.645070334653     
   33.715091563373981       0.71122957068301274       -791.93886926786206        18528.583939602515     
   35.546423767535067       0.63106885911987676       -792.04834686423283        19320.632286466749     
   37.377755971696153       0.55513033317798532       -791.49231348564069        20112.124599952389     
   39.318968108106901       0.47866588821844858       -790.36178628128073        20902.486386233672     
   41.260180244517649       0.40603783931220133       -788.73287046871508        21691.219256702385     
   43.317865109113043       0.33271812668042050       -786.61950987911621        22477.838766581503     
   45.375549973708438       0.26291540477537401       -784.14163280362391        23261.980399385127     
   47.556695930179558       0.19228927316116684       -781.25135169068608        24043.231751075815     
   49.737841886650678       0.12491724588921874       -778.10260470686694        24821.334355782681     
   52.049856600510061        5.6619150534577500E-002  -774.59836721045519        25595.932722993137     
   54.361871314369445       -8.6405349830495637E-003  -770.91892324187393        26366.851646235009     
   56.812606911060392       -7.4904711481704189E-002  -766.92854293337473        27133.780189168385     
   59.263342507751339      -0.13830744693644287       -1021.9053232180048        28155.685512386390     
   61.861122240243745      -0.20277338195885364       -1157.8508492746448        29313.536361661034     
   64.458901972736157      -0.26449045405881566       -1334.9101140093119        30648.446475670346     
   67.056681705228570      -0.32372714532448582       -1536.9240137010690        32185.370489371413     
   69.810328221670517      -0.38413781017515702       -1734.2818809675816        33919.652370338998     
   72.563974738112464      -0.44215198755264273       -1846.5675968014409        35766.219967140438     
   75.482840045540925      -0.43588917824354978       -1836.9030750001200        37603.123042140556     
   78.401705352969387      -0.43255623577581526       -1818.9740439315262        39422.097086072084     
   81.320570660397848      -0.43140879202561422       -1796.3157342986015        41218.412820370686     
   84.239435967826310      -0.43184050824929421       -1771.1113866769285        42989.524207047616     
   87.158301275254772      -0.43338210067375188       -1744.6550762743989        44734.179283322017     
   90.077166582683233      -0.43567960787145921       -1717.6959443563283        46451.875227678349     
   92.996031890111695      -0.43847162896980274       -1690.6563869417337        48142.531614620086     
   95.914897197540157      -0.44156875419390906       -1663.7636799045317        49806.295294524614     
   98.833762504968618      -0.44483636942657417       -1637.1275093174916        51443.422803842106     
   101.75262781239708      -0.44818093285473681       -1610.7853966583648        53054.208200500470     
   104.67149311982554      -0.45153933977489252       -1584.7296027891509        54638.937803289620     
   107.59035842725400      -0.45487083790511440       -1558.9234886178981        56197.861291907517     
   110.50922373468246      -0.45815096008439793       -1533.3118858785560        57731.173177786070     
   113.42808904211093      -0.46136701013607512       -1507.8280390774171        59239.001216863486     
   116.34695434953939      -0.46451472372206737       -1482.3985522914420        60721.399769154930     
   119.26581965696785      -0.46759580791744609       -1456.9471453058281        62178.346914460759     
   122.18468496439631      -0.47061613303911148       -1335.9242427330748        63514.271157193834     
   125.10355027182477      -0.47358440638997140       -1210.1273662889455        64724.398523482778     
   128.02241557925325      -0.47651120117408224       -1103.6676319324545        65828.066155415232     
   130.94128088668171      -0.47940824695943740       -1013.0221861419000        66841.088341557130     
   133.86014619411017      -0.48228791286173706       -935.40317181755233        67776.491513374684     
   136.77901150153863      -0.48516283299737689       -868.59339117612967        68645.084904550808     
   139.69787680896710      -0.48804563726621619       -810.81872878658783        69455.903633337395     
   142.61674211639556      -0.49157105363221582       -755.62233720651716        70211.525970543909     
   145.71073934226973      -0.49469763097088199       -710.32056390263290        70921.846534446537     
   148.80473656814391      -0.49844483900268999       -667.55555113235425        71589.402085578884     
   152.08437362757053      -0.50187525345239525       -632.18411938556608        72221.586204964449     
   155.36401068699715      -0.50589636652236747       -599.13660662516361        72820.722811589614     
   158.84042596998938      -0.51025146670788968       -569.40973343223629        73390.132545021857     
   162.52542616996115      -0.51497102120149507       -542.87064726824497        73933.003192290096     
   166.43152638193121      -0.52009335673981416       -519.33678814591804        74452.339980436009     
   170.57199260661949      -0.52566601028520687       -498.58781787956605        74950.927798315577     
   174.96088680478906      -0.53174719582843433       -480.37523289390617        75431.303031209478     
   179.61311465484880      -0.53840740493056571       -464.43012271590919        75895.733153925394     
   184.54447617591214      -0.54573116047492187       -450.47005293764590        76346.203206863036     
   189.77171938823926      -0.55381894155737332       -438.20646992984899        76784.409676792886     
   195.31259719330600      -0.56278929231433605       -427.35425013399345        77211.763926926884     
   201.18592766667675      -0.57782566029214488       -424.43427754576260        77636.198204472646     
   207.05925814004749      -0.59970743510730662       -613.62137680024478        78249.819581272895     
   212.93258861341823      -0.62833395477356002       -557.22496468232328        78807.044545955214     
   218.21858603945191      -0.65656586645236503       -518.59039932322003        79325.634945278434     
   223.50458346548558      -0.68672382671174692       -490.76848545583437        79816.403430734266     
   228.79058089151926      -0.71712609700830421       -473.38320097221555        80289.786631706476     
   234.07657831755293      -0.72237787427351630       -481.99181755782331        80771.778449264297     
   238.83397600098323      -0.72784033764619605       -487.32546936603387        81259.103918630324     
   243.59137368441355      -0.73376631407366200       -490.97119661056917        81750.075115240892     
   248.34877136784388      -0.74000354395635404       -493.47927599183782        82243.554391232727     
   253.10616905127421      -0.74643776206361778       -495.30360813969043        82738.857999372412     
   257.86356673470453      -0.75297785034090414       -496.82978112699982        83235.687780499415     
   262.62096441813486      -0.75954834613700484       -498.37036002861134        83734.058140528025     
   267.37836210156519      -0.76608541752723791       -500.17490893785714        84234.233049465882     
   272.13575978499551      -0.77253456108259022       -502.44143951087324        84736.674488976758     
   276.89315746842584      -0.77884920865443996       -505.32778804569432        85242.002277022446     
   281.65055515185617      -0.78498984515458337       -508.96187962945390        85750.964156651899     
   286.40795283528649      -0.79092342541466298       -513.45033875599768        86264.414495407895     
   291.16535051871682      -0.79662296227367224       -518.88527774565648        86783.299773153558     
   295.92274820214715      -0.80206719883012079       -525.34931204605994        87308.649085199620     
   300.68014588557747      -0.80724030212998876       -532.91894807655615        87841.568033276169     
   305.43754356900780      -0.81213153466496368       -541.66650903449033        88383.234542310660     
   310.19494125243813      -0.81673487753215401       -551.66074405803727        88934.895286368701     
   314.95233893586845      -0.82104859511962591       -562.96623212535872        89497.861518494057     
   319.70973661929878      -0.82507439281665762       -575.64272037092871        90073.504238864989     
   324.46713430272911      -0.82881725649336635       -589.74138198866672        90663.245620853661     
   329.22453198615943      -0.83228543677680056       -605.29915565953411        91268.544776513198     
   333.98192966958976      -0.83548929362487645       -622.33585372830737        91890.880630241503     
   338.73932735302009      -0.83844075673341745       -640.84870685591625        92531.729337097422     
   343.49672503645041      -0.84115284238539101       -660.80620588187162        93192.535542979298     
   348.25412271988074      -0.84363922008299808       -682.14164350624219        93874.677186485540     
   353.01152040331107      -0.84591383858851188       -704.74674975384437        94579.423936239386     
   357.76891808674139      -0.84799061633235062       -728.46592818452825        95307.889864423909     
   362.52631577017172      -0.84988319713339877       -753.09170079548517        96060.981565219394     
   367.28371345360205      -0.85160476899134441       -778.36203817054468        96839.343603389934     
   372.04111113703237      -0.85316794138546392       -803.96026504586200        97643.303868435803     
   376.79850882046270      -0.85458467498997659       -829.51816882475998        98472.822037260557     
   381.55590650389303      -0.85586625688680196       -854.62278481788007        99327.444822078440     
   386.31330418732335      -0.85702331410325339       -878.82708417495678        100206.27190625340     
   391.07070187075368      -0.85806585851340600       -901.66446246310318        101107.93636871650     
   395.82809955418401      -0.85900335672753758       -922.66655169518890        102030.60292041169     
   400.58549723761433      -0.85984481949027214       -941.38350729758690        102971.98642770929     
   405.34289492104466      -0.86059890628092495       -957.40561729307308        103929.39204500236     
   410.10029260447499      -0.86127404225244319       -970.38491077466233        104899.77695577702     
   414.85769028790531      -0.86288703426867264       -977.74234727287444        105877.51930304989     
   419.61508797133564      -0.86556671723552070       -983.39234577695663        106860.91164882685     
   424.37248565476597      -0.86941470016521483       -986.35811659571334        107847.26976542256     
   429.12988333819629      -0.87450381954387357       -987.65255584460999        108834.92232126718     
   433.88728102162662      -0.88083561529972199       -987.61374699066948        109822.53606825785     
   438.64467870505695      -0.88844190513600685       -985.99061393155148        110808.52668218940     
   443.40207638848727      -0.89737119336877857       -982.19746523766162        111790.72414742707     
   448.15947407191760      -0.90768013779671419       -975.55941297457525        112766.28356040164     
   452.91687175534793      -0.91942756197628306       -965.56418573068709        113731.84774613233     
   457.67426943877825      -0.93266894547898282       -952.08363533094087        114683.93138146328     
   462.43166712220858      -0.94744861442598283       -935.56129150954030        115619.49267297282     
   467.18906480563891      -0.96378704639543822       -916.92394744366300        116536.41662041648     
   471.94646248906923      -0.98167803059855985       -897.41996465067393        117433.83658506715     
   476.70386017249956       -1.0010771605119215       -878.46046456907845        118312.29704963624     
   481.46125785592989       -1.0218877614848099       -861.39951642559663        119173.69656606183     
   483.40988794706294       -1.0306412970828576       -854.66129239927909        120028.35785846111     
   485.35851803819600       -1.0295269712102453       -879.81832303597457        120908.17618149708     
   487.11228512021574       -1.0286241116001453       -901.42748853634339        121809.60367003342     
   488.86605220223549       -1.0278208476051167       -921.90301671378143        122731.50668674721     
   490.61981928425524       -1.0271065004704489       -941.23464746532159        123672.74133421252     
   492.37358636627499       -1.0264717381219586       -959.40450929834606        124632.14584351087     
   494.12735344829474       -1.0259088318332350       -976.39788420543198        125608.54372771630     
   495.88112053031449       -1.0254112634937755       -992.20684564566238        126600.75057336196     
   497.63488761233424       -1.0249735017466759       -1006.8304725191565        127607.58104588112     
   499.38865469435399       -1.0245908444193315       -1020.2747734010994        128627.85581928222     
   501.14242177637374       -1.0242592922715215       -1032.5524635120266        129660.40828279425     
   502.89618885839349       -1.0239754467586870       -1043.6826261005172        130704.09090889477     
   504.64995594041324       -1.0237364264146303       -1053.6902855190749        131757.78119441384     
   506.40372302243298       -1.0235397978130454       -1062.6059156190986        132820.38711003293     
   508.15749010445273       -1.0233835180448010       -1070.4649039230885        133890.85201395603     
   509.91125718647248       -1.0232658863623982       -1077.3069892075446        134968.15900316357     
   511.66502426849223       -1.0231855031716925       -1083.1756875702208        136051.33469073378     
   513.41879135051204       -1.0231412349464071       -1088.1177197264935        137139.45241046028     
   515.17255843253179       -1.0231321839397221       -1092.1824501741387        138231.63486063443     
   516.92632551455154       -1.0231576617952174       -1095.4213469885383        139327.05620762295     
   518.68009259657128       -1.0232171663349807       -1097.8874693844257        140424.94367700737     
   520.43385967859103       -1.0233103609391254       -1099.6349888352979        141524.57866584265     
   522.18762676061078       -1.0234370560380985       -1100.7187485296606        142625.29741437233     
   523.94139384263053       -1.0235971923242047       -1101.1938653459363        143726.49127971826     
   525.69516092465028       -1.0237908253571941       -1101.1153784911055        144827.60665820938     
   527.44892800667003       -1.0240181112945630       -1100.5379497419985        145928.14460795137     
   529.20269508868978       -1.0242792935236760       -1099.5156223937645        147027.66023034512     
   530.95646217070953       -1.0245746900121824       -1098.1016506940955        148125.76188103922     
   532.71022925272928       -1.0249372931711600       -1096.4138507138441        149222.17573175306     
   534.56922235967022       -1.0253266902484881       -1094.2497255076598        150316.42545726072     
   536.42821546661116       -1.0257873012174896       -1091.8952187353696        151408.32067599607     
   538.39874815996859       -1.0262882022534272       -1089.1114092772345        152497.43208527332     
   540.36928085332602       -1.0268641824989531       -1086.2507812263138        153583.68286649964     
   542.45804550828484       -1.0275258521171342       -1083.1841093120884        154666.86697581172     
   544.67213604254118       -1.0282576286632379       -1079.9859563845966        155746.85293219631     
   546.88622657679753       -1.0290741201263560       -1076.9908496026869        156823.84378179899     
   549.23316254310930       -1.0299714943426161       -1074.3227129659294        157898.16649476491     
   551.58009850942108       -1.0309273400893550       -1071.7777098383870        158969.94420460329     
