 #              _____________________  _______________________             #
 #              ___  __ \__  __ \_  / / /_  /___  ____/_  ___/             #
 #              __  / / /_  /_/ /  / / /_  __/_  __/  _____ \              #
 #              _  /_/ /_  _, _// /_/ / / /_ _  /___  ____/ /              #
 #              /_____/ /_/ |_| \____/  \__/ /_____/  /____/               #
 #                                                                         #
  
 #        time                      T            heat flux [W.L-2]   in    x              directions   cumulative flux
 #-----------------------------------------------------------------------------------------------

   0.0000000000000000        4.8296000000000001       -1.9843867658046175        1.9843867658046175     
   1.0000000000000000        4.8303581350398996       -2.2181981318770805        4.2025848976816977     
   1.8999999999999999        4.8310050706230170       -2.4120804878252029        6.6146653855069006     
   2.7100000000000000        4.8315606785815257       -2.5742302830116559        9.1888956685185565     
   3.5200000000000000        4.8320915211773148       -2.7250075242793281        11.913903192797886     
   4.3300000000000001        4.8325993204791438       -2.8653039829581823        14.779207175756067     
   5.1400000000000006        4.8330856640052478       -2.9959380792780630        17.775145255034129     
   5.9500000000000011        4.8335520157787428       -3.1176611066455524        20.892806361679682     
   6.7600000000000016        4.8339997264439791       -3.2311629163530786        24.123969278032760     
   7.5700000000000021        4.8344300425256614       -3.3370771100942487        27.461046388127009     
   8.3800000000000026        4.8348441149052599       -3.4359857835140244        30.897032171641033     
   9.1900000000000031        4.8352430065826280       -3.5284238601983944        34.425456031839431     
   10.000000000000004        4.8356276997847161       -3.6148830520660353        38.040339083905465     
   10.810000000000004        4.8359991039550589       -3.6958160754861544        41.736155159391622     
   11.668600000000005        4.8363788545668998       -3.7758880111998319        45.512043170591454     
   12.578716000000005        4.8367668154068379       -3.8548748705672091        49.366918041158662     
   13.488832000000006        4.8371412014047976       -3.9284609373035564        53.295378978462217     
   14.453554960000005        4.8375238810202461       -4.0009197824181628        57.296298760880383     
   15.476161297600006        4.8379147751251210       -4.0720646763601351        61.368363437240518     
   16.560124015456008        4.8383138200432363       -4.1417220638412600        65.510085501081775     
   17.709124496383367        4.8387209705626155       -4.2097341607185914        69.719819661800372     
   18.858124977310727        4.8391135104909875       -4.2724969355635540        73.992316597363924     
   20.076065487093729        4.8395144936661385       -4.3337349225415158        78.326051519905434     
   21.367082427463711        4.8399239504209914       -4.3933422793382464        82.719393799243676     
   22.735560384255891        4.8403419338389115       -4.4512340330995039        87.170627832343186     
   24.104038341048071        4.8407451871894178       -4.5044220673053292        91.675049899648513     
   25.554624975247783        4.8411574641537616       -4.5561278920031043        96.231177791651618     
   27.092246807499478        4.8415788773558512       -4.6063178809477092        100.83749567259933     
   28.629868639751173        4.8419859678307695       -4.6524410891761576        105.48993676177548     
   30.259747781937971        4.8424027241065817       -4.6973303693868367        110.18726713116232     
   31.987419672655975        4.8428292882853547       -4.7410000531027245        114.92826718426504     
   33.715091563373981        4.8432418695813668       -4.7812610856079765        119.70952826987302     
   35.546423767535067        4.8436647508855932       -4.8206246919800035        124.53015296185302     
   37.377755971696153        4.8440742748288672       -4.8571232179616715        129.38727617981471     
   39.318968108106901        4.8444944925259197       -4.8930533797691016        134.28032955958381     
   41.260180244517649        4.8449018162035387       -4.9266274327898234        139.20695699237362     
   43.317865109113043        4.8453200991507615       -4.9599863330150047        144.16694332538862     
   45.375549973708438        4.8457257728822505       -4.9914849887043626        149.15842831409299     
   47.556695930179558        4.8461425030240903       -5.0231734850535341        154.18160179914653     
   49.737841886650678        4.8465467042325834       -5.0535140326909183        159.23511583183745     
   52.049856600510061        4.8469618331722728       -5.0845412005670383        164.31965703240448     
   54.361871314369445        4.8473642671245836       -5.1147874363234216        169.43444446872789     
   56.812606911060392        4.8477771902576343       -5.1463630192598373        174.58080748798773     
   59.263342507751339        4.8481769407878774       -5.1778266517499016        179.75863413973764     
   61.861122240243745        4.8485863097441966       -5.2114778261375072        184.97011196587513     
   64.458901972736157        4.8489816195700088       -5.2458430905264741        190.21595505640161     
   67.056681705228570        4.8493630606057545       -5.2813284089513921        195.49728346535301     
   69.810328221670517        4.8497518973719282       -5.3206757103462534        200.81795917569926     
   72.563974738112464        4.8501252095112246       -5.3622272829768995        206.18018645867616     
   75.482840045540925        4.8505032935390302       -5.4093016013580151        211.58948806003417     
   78.401705352969387        4.8508634296650301       -5.4599553442314699        217.04944340426565     
   81.320570660397848        4.8512051717725599       -5.5147313913837950        222.56417479564945     
   84.239435967826310        4.8515279567564358       -5.5741652119281122        228.13834000757757     
   87.158301275254772        4.8518311129216354       -5.6387831991936466        233.77712320677122     
   90.077166582683233        4.8521138681045892       -5.7091007593648895        239.48622396613612     
   92.996031890111695        4.8523753576230142       -5.7856202641458374        245.27184423028197     
   95.914897197540157        4.8526146321231804       -5.8688289526970960        251.14067318297907     
   98.833762504968618        4.8528306653654942       -5.9591968492138641        257.09987003219294     
   101.75262781239708        4.8530223619680122       -6.0571747482519811        263.15704478044495     
   104.67149311982554        4.8531885651114761       -6.1631923090552361        269.32023708950021     
   107.59035842725400        4.8533280641973215       -6.2776562915302181        275.59789338103042     
   110.50922373468246        4.8534396024411395       -6.4009489594937561        281.99884234052416     
   113.42808904211093        4.8535218843776855       -6.5334266708016475        288.53226901132581     
   116.34695434953939        4.8535735832491351       -6.6754186685972101        295.20768767992303     
   119.26581965696785        4.8535933482457496       -6.8272260830468925        302.03491376296989     
   122.18468496439631        4.8535798115670525       -6.9891211484589437        309.02403491142883     
   125.10355027182477        4.8535315952717575       -7.1613466365670400        316.18538154799586     
   128.02241557925325        4.8534473178859647       -7.3441155030439864        323.52949705103987     
   130.94128088668171        4.8533256007412104       -7.5376107410309912        331.06710779207089     
   133.86014619411017        4.8531650740167107       -7.7419854325926112        338.80909322466351     
   136.77901150153863        4.8529643824634103       -7.9573629866634112        346.76645621132690     
   139.69787680896710        4.8527221907910132       -8.1838375501151468        354.95029376144203     
   142.61674211639556        4.8524371734449741       -8.4214765650162313        363.37177032645826     
   145.71073934226973        4.8520854465799061       -8.6859567939870423        372.05772712044529     
   148.80473656814391        4.8516825963758361       -8.9630334448536182        381.02076056529893     
   152.08437362757053        4.8511964746507434       -9.2708510849568793        390.29161165025579     
   155.36401068699715        4.8506495751142680       -9.5927216356832119        399.88433328593902     
   158.84042596998938        4.8499997437669586       -9.9495603137100481        409.83389359964906     
   162.52542616996115        4.8492300572787945       -10.345189568486296        420.17908316813538     
   166.43152638193121        4.8483210178038387       -10.783769511639459        430.96285267977481     
   170.57199260661949        4.8472502147467518       -11.269801888549850        442.23265456832468     
   174.96088680478906        4.8459919588135101       -11.808126555106073        454.04078112343075     
   179.61311465484880        4.8445168911045871       -12.403908590318006        466.44468971374874     
   184.54447617591214        4.8427915717851411       -13.062614055348361        479.50730376909712     
   189.77171938823926        4.8407780549788049       -13.789972360306407        493.29727612940354     
   195.31259719330600        4.8384334589625002       -14.591923246046322        507.88919937544989     
   201.18592766667675        4.8357097343336672       -15.474481186039533        523.36368056148945     
   207.05925814004749        4.8327459128395684       -16.387270770841248        539.75095133233071     
   212.93258861341823        4.8295413321075316       -17.327943408528203        557.07889474085891     
   218.21858603945191        4.8264622388739982       -18.195399704086405        575.27429444494533     
   223.50458346548558        4.8231887180825712       -19.081966310240094        594.35626075518542     
   228.79058089151926        4.8197217859873458       -19.985903708596847        614.34216446378230     
   234.07657831755293        4.8160629031123436       -20.905484563330194        635.24764902711252     
   238.83397600098323        4.8126157697750802       -21.744529615286950        656.99217864239949     
   243.59137368441355        4.8090160943131242       -22.593771327152986        679.58594996955253     
   248.34877136784388        4.8052657125665972       -23.452006334696737        703.03795630424929     
   253.10616905127421        4.8013666811239517       -24.318059536624421        727.35601584087374     
   257.86356673470453        4.7973212592550309       -25.190787779506628        752.54680362038039     
   262.62096441813486        4.7931318911310017       -26.069082831813965        778.61588645219433     
   267.37836210156519        4.7888011884788844       -26.951873718296913        805.56776017049128     
   272.13575978499551        4.7843319137602274       -27.838128532733069        833.40588870322438     
   276.89315746842584        4.7797269639104298       -28.726855857875940        862.13274456110037     
   281.65055515185617        4.7749893546370235       -29.617105904474894        891.74985046557526     
   286.40795283528649        4.7701222052552081       -30.507971448620648        922.25782191419592     
   291.16535051871682        4.7651287240358737       -31.398588609849501        953.65641052404544     
   295.92274820214715        4.7600121940509279       -32.288137479756223        985.94454800380163     
   300.68014588557747        4.7547759595175085       -33.175842587020675        1019.1203905908224     
   305.43754356900780        4.7494234126616055       -34.060973171376673        1053.1813637621990     
   310.19494125243813        4.7439579811384540       -34.942843235396047        1088.1242069975951     
   314.95233893586845        4.7383831160592313       -35.820811347056143        1123.9450183446513     
   319.70973661929878        4.7327022806796357       -36.694280175366771        1160.6392985200182     
   324.46713430272911        4.7269189398057261       -37.562695753394706        1198.2019942734130     
   329.22453198615943        4.7210365499664855       -38.425546475611227        1236.6275407490243     
   333.98192966958976        4.7150585503923539       -39.282361848168868        1275.9099025971932     
   338.73932735302009        4.7089883548255145       -40.132711020302835        1316.0426136174960     
   343.49672503645041        4.7028293441727786       -40.976201132100314        1357.0188147495965     
   348.25412271988074        4.6965848599965652       -41.812475518215614        1398.8312902678122     
   353.01152040331107        4.6902581988248615       -42.641211808829823        1441.4725020766421     
   357.76891808674139        4.6838526072480180       -43.462119968655323        1484.9346220452974     
   362.52631577017172        4.6773712777592431       -44.274940312405150        1529.2095623577025     
   367.28371345360205        4.6708173452871327       -45.079441531452687        1574.2890038891551     
   372.04111113703237        4.6641938843624242       -45.875418761730316        1620.1644226508854     
   376.79850882046270        4.6575039068575554       -46.662691717798687        1666.8271143686841     
   381.55590650389303        4.6507503602360964       -47.441102912687164        1714.2682172813713     
   386.31330418732335        4.6439361262496535       -48.210515977937071        1762.4787332593085     
   391.07070187075368        4.6370640200219313       -48.970814093418120        1811.4495473527265     
   395.82809955418401        4.6301367894630543       -49.721898532109684        1861.1714458848362     
   400.58549723761433        4.6231571149616117       -50.463687321243661        1911.6351332060799     
   405.34289492104466        4.6161276093068810       -51.196114017992578        1962.8312472240725     
   410.10029260447499        4.6090508177990950       -51.919126595320542        2014.7503738193930     
   414.85769028790531        4.6019292185124909       -52.632686423318816        2067.3830602427120     
   419.61508797133564        4.5947652226971076       -53.336767308740562        2120.7198275514525     
   424.37248565476597        4.5875611752787906       -54.031354620017119        2174.7511821714697     
   429.12988333819629        4.5803193554566244       -54.716444454171949        2229.4676266256415     
   433.88728102162662        4.5730419773491313       -55.392042903029036        2284.8596695286706     
   438.64467870505695        4.5657311906565301       -56.058165426811726        2340.9178349554822     
   443.40207638848727        4.5583890812849335       -56.714836372297022        2397.6326713277795     
   448.15947407191760        4.5510176718775410       -57.362088657024970        2454.9947599848047     
   452.91687175534793        4.5436189221984726       -57.999963630414342        2512.9947236152188     
   457.67426943877825        4.5361947293214389       -58.628511109400328        2571.6232347246191     
   462.43166712220858        4.5287469275668357       -59.247789620106865        2630.8710243447258     
   467.18906480563891        4.5212772881092560       -59.857866908849864        2690.7288912535755     
   471.94646248906923        4.5137875181736460       -60.458820751027446        2751.1877120046029     
   476.70386017249956        4.5062792597608592       -61.050740021784513        2812.2384520263872     
   481.46125785592989        4.4987540878924364       -61.633725926179558        2873.8721779525667     
   483.40988794706294        4.4956690461313622       -61.871017558406272        2935.7431955109732     
   485.35851803819600        4.4925813783474533       -62.106825241096885        2997.8500207520701     
   487.11228512021574        4.4898004252214214       -62.317855456607020        3060.1678762086772     
   488.86605220223549        4.4870174933930675       -62.527695671866745        3122.6955718805439     
   490.61981928425524        4.4842326550666520       -62.736352290837154        3185.4319241713811     
   492.37358636627499        4.4814459811099763       -62.943831995898684        3248.3757561672796     
   494.12735344829474        4.4786575410366183       -63.150141752955946        3311.5258979202354     
   495.88112053031449        4.4758674029883991       -63.355288814945645        3374.8811867351810     
   497.63488761233424        4.4730756337184499       -63.559280723440452        3438.4404674586212     
   499.38865469435399        4.4702822985752961       -63.762125308059666        3502.2025927666809     
   501.14242177637374        4.4674874614883917       -63.963830683402755        3566.1664234500836     
   502.89618885839349        4.4646911849555524       -64.164405243269726        3630.3308286933534     
   504.64995594041324        4.4618935300327252       -64.363857651960586        3694.6946863453140     
   506.40372302243298        4.4590945563265381       -64.562196832524705        3759.2568831778390     
   508.15749010445273        4.4562943219900326       -64.759431951901405        3824.0163151297402     
   509.91125718647248        4.4534928837219727       -64.955572402968983        3888.9718875327089     
   511.66502426849223        4.4506902967700341       -65.150627783600711        3954.1225153163095     
   513.41879135051204        4.4478866149381791       -65.344607872919156        4019.4671231892289     
   515.17255843253179        4.4450818905983960       -65.537522604990869        4085.0046457942199     
   516.92632551455154        4.4422761747069677       -65.729382040291625        4150.7340278345118     
   518.68009259657128        4.4394695168253353       -65.920196335309996        4216.6542241698216     
   520.43385967859103        4.4366619651455110       -66.109975710690208        4282.7641998805120     
   522.18762676061078        4.4338535665200256       -66.298730418373850        4349.0629302988855     
   523.94139384263053        4.4310443664961996       -66.486470708172419        4415.5494010070579     
   525.69516092465028        4.4282344093545509       -66.673206794228150        4482.2226078012864     
   527.44892800667003        4.4254237381510571       -66.858948821807317        4549.0815566230940     
   529.20269508868978        4.4226123947629361       -67.043706834844770        4616.1252634579387     
   530.95646217070953        4.4198004199375873       -67.227490744631780        4683.3527542025704     
   532.71022925272928        4.4169877374909259       -67.410329357940867        4750.7630835605114     
   534.56922235967022        4.4140057971700148       -67.603045485697479        4818.3661290462087     
   536.42821546661116        4.4110231527418664       -67.794720316152123        4886.1608493623608     
   538.39874815996859        4.4078610935361437       -67.996694669333280        4954.1575440316938     
   540.36928085332602        4.4046983463138174       -68.197522362239226        5022.3550663939332     
   542.45804550828484        4.4013452739888752       -68.409102165775735        5090.7641685597091     
   544.67213604254118        4.3977906386926016       -68.631911665125486        5159.3960802248348     
   546.88622657679753        4.3942353378179568       -68.853317309084147        5228.2493975339194     
   549.23316254310930        4.3904664443943267       -69.086398257200315        5297.3357957911194     
   551.58009850942108        4.3866971605016287       -69.317910594040271        5366.6537063851592     
