 #              _____________________  _______________________             #
 #              ___  __ \__  __ \_  / / /_  /___  ____/_  ___/             #
 #              __  / / /_  /_/ /  / / /_  __/_  __/  _____ \              #
 #              _  /_/ /_  _, _// /_/ / / /_ _  /___  ____/ /              #
 #              /_____/ /_/ |_| \____/  \__/ /_____/  /____/               #
 #                                                                         #
  
 #        time                      T            heat flux [W.L-2]   in    x              directions   cumulative flux
 #-----------------------------------------------------------------------------------------------

   0.0000000000000000        5.0792999999999999       -5.9535747299831634        5.9535747299831634     
   1.0000000000000000        5.0793006382379575       -5.9537621115741342        11.907336841557298     
   1.8999999999999999        5.0793011842373526       -5.9539177384141402        17.861254579971437     
   2.7100000000000000        5.0793016541525926       -5.9540483069261727        23.815302886897609     
   3.5200000000000000        5.0793021039206003       -5.9541704410270739        29.769473327924683     
   4.3300000000000001        5.0793025346732268       -5.9542852229017722        35.723758550826453     
   5.1400000000000006        5.0793029473261262       -5.9543937587280613        41.678152309554513     
   5.9500000000000011        5.0793033425677532       -5.9544971782615272        47.632649487816039     
   6.7600000000000016        5.0793037208490261       -5.9545966318289096        53.587246119644945     
   7.5700000000000021        5.0793040823740974       -5.9546932854372159        59.541939405082161     
   8.3800000000000026        5.0793044270925511       -5.9547883145865903        65.496727719668755     
   9.1900000000000031        5.0793047546932177       -5.9548828972532810        71.451610616922039     
   10.000000000000004        5.0793050645997724       -5.9549782064392955        77.406588823361332     
   10.810000000000004        5.0793053559797841       -5.9550754044385981        83.361664227799935     
   11.668600000000005        5.0793056426731589       -5.9551819115956164        89.316846139395551     
   12.578716000000005        5.0793059196126196       -5.9553002830005406        95.272146422396091     
   13.488832000000006        5.0793061671885971       -5.9554256477342822        101.22757207013038     
   14.453554960000005        5.0793063931765623       -5.9555681046814657        107.18314017481184     
   15.476161297600006        5.0793065870596417       -5.9557317806047836        113.13887195541662     
   16.560124015456008        5.0793067348877052       -5.9559216231798180        119.09479357859644     
   17.709124496383367        5.0793068181984937       -5.9561434779635389        125.05093705655997     
   18.858124977310727        5.0793068189018351       -5.9563879941509148        131.00732505071088     
   20.076065487093729        5.0793067146679931       -5.9566746940511104        136.96399974476199     
   21.367082427463711        5.0793064707255891       -5.9570115384723934        142.92101128323438     
   22.735560384255891        5.0793060423934531       -5.9574074499277927        148.87841873316216     
   24.104038341048071        5.0793054239122251       -5.9578436305884770        154.83626236375065     
   25.554624975247783        5.0793045288692094       -5.9583521566240236        160.79461452037467     
   27.092246807499478        5.0793032792926383       -5.9589433979180857        166.75355791829276     
   28.629868639751173        5.0793016971092584       -5.9595866244069535        172.71314454269972     
   30.259747781937971        5.0792996071757042       -5.9603255859172437        178.67347012861697     
   31.987419672655975        5.0792968812315582       -5.9611706435677254        184.63464077218470     
   33.715091563373981        5.0792935992606791       -5.9620744836714996        190.59671525585620     
   35.546423767535067        5.0792894407952378       -5.9630937969780966        196.55980905283428     
   37.377755971696153        5.0792845509485449       -5.9641692733300093        202.52397832616430     
   39.318968108106901        5.0792784844441314       -5.9653651422965890        208.48934346846087     
   41.260180244517649        5.0792714778432373       -5.9666096296274427        214.45595309808832     
   43.317865109113043        5.0792629282768624       -5.9679737610103851        220.42392685909871     
   45.375549973708438        5.0792531963756673       -5.9693735580633920        226.39330041716210     
   47.556695930179558        5.0792414837049149       -5.9708855690105711        232.36418598617266     
   49.737841886650678        5.0792283142961256       -5.9724147115116635        238.33660069768433     
   52.049856600510061        5.0792126509168334       -5.9740412217281307        244.31064191941246     
   54.361871314369445        5.0791952272366929       -5.9756609188633050        250.28630283827576     
   56.812606911060392        5.0791747188066321       -5.9773553232657308        256.26365816154151     
   59.263342507751339        5.0791521220334968       -5.9790140766001745        262.24267223814167     
   61.861122240243745        5.0791257718667397       -5.9807170247103976        268.22338926285204     
   64.458901972736157        5.0790969862392981       -5.9823512507523899        274.20574051360444     
   67.056681705228570        5.0790657371537735       -5.9839046479415394        280.18964516154597     
   69.810328221670517        5.0790298206332780       -5.9854471199543324        286.17509228150033     
   72.563974738112464        5.0789911015457117       -5.9868744440505406        292.16196672555088     
   75.482840045540925        5.0789469066820798       -5.9882461237189801        298.15021284926985     
   78.401705352969387        5.0788995696674260       -5.9894669410358343        304.13967979030571     
   81.320570660397848        5.0788491101046898       -5.9905288462857325        310.13020863659142     
   84.239435967826310        5.0787955565777274       -5.9914253500956436        316.12163398668707     
   87.158301275254772        5.0787389456037859       -5.9921513846547043        322.11378537134181     
   90.077166582683233        5.0786793206500338       -5.9927031663070185        328.10648853764883     
   92.996031890111695        5.0786167312177639       -5.9930780623780215        334.09956660002683     
   95.914897197540157        5.0785512319955961       -5.9932744642544300        340.09284106428129     
   98.833762504968618        5.0784828820813726       -5.9932916680664432        346.08613273234772     
   101.75262781239708        5.0784117442711727       -5.9931297638050660        352.07926249615281     
   104.67149311982554        5.0783378844129112       -5.9927895332630206        358.07205202941583     
   107.59035842725400        5.0782613708214193       -5.9922723569143885        364.06432438633021     
   110.50922373468246        5.0781822737514446       -5.9915801295793560        370.05590451590956     
   113.42808904211093        5.0781006649247677       -5.9907151845671107        376.04661970047670     
   116.34695434953939        5.0780166171075907       -5.9896802258863175        382.03629992636303     
   119.26581965696785        5.0779302037342680       -5.9884782680136617        388.02477819437667     
   122.18468496439631        5.0778414985736235       -5.9871125826926246        394.01189077706931     
   125.10355027182477        5.0777505754341439       -5.9855866522008876        399.99747742927019     
   128.02241557925325        5.0776575079045703       -5.9839041285342303        405.98138155780441     
   130.94128088668171        5.0775623691265910       -5.9820687979685934        411.96345035577298     
   133.86014619411017        5.0774652315965261       -5.9800845504772209        417.94353490625019     
   136.77901150153863        5.0773661669931549       -5.9779553535228835        423.92149025977307     
   139.69787680896710        5.0772652460289942       -5.9756852297560155        429.89717548952910     
   142.61674211639556        5.0771625385741901       -5.9732781663326460        435.87045365586175     
   145.71073934226973        5.0770517422105037       -5.9705778306268398        441.84103148648859     
   148.80473656814391        5.0769390996533499       -5.9677333513608035        447.80876483784937     
   152.08437362757053        5.0768177163706918       -5.9645622230534725        453.77332706090283     
   155.36401068699715        5.0766944418889928       -5.9612406893372887        459.73456775024010     
   158.84042596998938        5.0765617503848421       -5.9575578058640000        465.69212555610409     
   162.52542616996115        5.0764189478258164       -5.9534799342211198        471.64560549032518     
   166.43152638193121        5.0762653005578215       -5.9489713935415525        477.59457688386675     
   170.57199260661949        5.0761000351818772       -5.9439945859236598        483.53857146979038     
   174.96088680478906        5.0759223387404333       -5.9385102091883031        489.47708167897866     
   179.61311465484880        5.0757313592055926       -5.9324775856106937        495.40955926458935     
   184.54447617591214        5.0755262062314515       -5.9258551445894829        501.33541440917884     
   189.77171938823926        5.0753059520887867       -5.9186011095128919        507.25401551869174     
   195.31259719330600        5.0750696326381952       -5.9106744552808497        513.16468997397260     
   201.18592766667675        5.0748162476605909       -5.9020364935712335        519.06672646754384     
   207.05925814004749        5.0745602682817506       -5.8931933715265901        524.95991983907038     
   212.93258861341823        5.0743019616492688       -5.8841761648686743        530.84409600393906     
   218.21858603945191        5.0740677796927098       -5.8759425517455384        536.72003855568460     
   223.50458346548558        5.0738320555014340       -5.8676139831818546        542.58765253886645     
   228.79058089151926        5.0735949378160958       -5.8592139883420202        548.44686652720850     
   234.07657831755293        5.0733565606834086       -5.8507665087500627        554.29763303595860     
   238.83397600098323        5.0731410893748077       -5.8431430692154080        560.14077610517404     
   243.59137368441355        5.0729247651631928       -5.8355170003534882        565.97629310552747     
   248.34877136784388        5.0727076579331989       -5.8279067298151732        571.80419983534262     
   253.10616905127421        5.0724898286394930       -5.8203310506828938        577.62453088602547     
   257.86356673470453        5.0722713294746775       -5.8128091346989139        583.43734002072438     
   262.62096441813486        5.0720522040340725       -5.8053605411564408        589.24270056188084     
   267.37836210156519        5.0718324874779839       -5.7980052214699223        595.04070578335075     
   272.13575978499551        5.0716122066921274       -5.7907635194941669        600.83146930284488     
   276.89315746842584        5.0713913804468991       -5.7836561676885134        606.61512547053337     
   281.65055515185617        5.0711700195561953       -5.7767042792699632        612.39182974980338     
   286.40795283528649        5.0709481270364627       -5.7699293365252018        618.16175908632863     
   291.16535051871682        5.0707256982666307       -5.7633531754677314        623.92511226179636     
   295.92274820214715        5.0705027211495359       -5.7569979670647662        629.68211022886112     
   300.68014588557747        5.0702791762753838       -5.7508861952610175        635.43299642412217     
   305.43754356900780        5.0700550370877684       -5.7450406320619782        641.17803705618417     
   310.19494125243813        5.0698302700526217       -5.7394843099174784        646.91752136610160     
   314.95233893586845        5.0696048348305087       -5.7342404916928018        652.65176185779444     
   319.70973661929878        5.0693786844525262       -5.7293326384915693        658.38109449628598     
   324.46713430272911        5.0691517655000133       -5.7247843756049885        664.10587887189092     
   329.22453198615943        5.0689240182882340       -5.7206194568632664        669.82649832875416     
   333.98192966958976        5.0686953770541159       -5.7168617276674212        675.54336005642153     
   338.73932735302009        5.0684657701480349       -5.7135350869598227        681.25689514338137     
   343.49672503645041        5.0682351202296285       -5.7106634484012737        686.96755859178268     
   348.25412271988074        5.0680033444675034       -5.7082707010031459        692.67582929278581     
   353.01152040331107        5.0677703547427022       -5.7063806694638650        698.38220996224970     
   357.76891808674139        5.0675360578557056       -5.7050170744335764        704.08722703668332     
   362.52631577017172        5.0673003557367426       -5.7042034929403940        709.79143052962377     
   367.28371345360205        5.0670631456590796       -5.7039633191737771        715.49539384879756     
   372.04111113703237        5.0668243204550096       -5.7043197258305183        721.19971357462805     
   376.79850882046270        5.0665837687341524       -5.7052956262039718        726.90500920083207     
   381.55590650389303        5.0663413751037076       -5.7069136371765925        732.61192283800870     
   386.31330418732335        5.0660970203902504       -5.7091960432824349        738.32111888129111     
   391.07070187075368        5.0658505818626667       -5.7121647619645000        744.03328364325557     
   395.82809955418401        5.0656019334557971       -5.7158413101643415        749.74912495341994     
   400.58549723761433        5.0653509459943553       -5.7202467723441019        755.46937172576406     
   405.34289492104466        5.0650974874166890       -5.7254017700438169        761.19477349580791     
   410.10029260447499        5.0648414229979499       -5.7313264330489044        766.92609992885684     
   414.85769028790531        5.0645826155722462       -5.7380403722450506        772.66414030110184     
   419.61508797133564        5.0643209257533437       -5.7455626542042282        778.40970295530610     
   424.37248565476597        5.0640562121535098       -5.7539117775520969        784.16361473285815     
   429.12988333819629        5.0637883316001080       -5.7631056511458532        789.92672038400406     
   433.88728102162662        5.0635171393495382       -5.7731615740748063        795.69988195807889     
   438.64467870505695        5.0632424892981707       -5.7840962174987114        801.48397817557759     
   443.40207638848727        5.0629642341899324       -5.7959256083197515        807.27990378389734     
   448.15947407191760        5.0626822258201836       -5.8086651146713955        813.08856889856872     
   452.91687175534793        5.0623963152356053       -5.8223294332067832        818.91089833177546     
   457.67426943877825        5.0621063529298072       -5.8369325781622532        824.74783090993776     
   462.43166712220858        5.0618121890343817       -5.8524878721531950        830.60031878209099     
   467.18906480563891        5.0615136735051731       -5.8690079386697658        836.46932672076071     
   471.94646248906923        5.0612106563035466       -5.8865046962174370        842.35583141697816     
   476.70386017249956        5.0609029875724438       -5.9049893540537548        848.26082077103194     
   481.46125785592989        5.0605905178070865       -5.9244724094711367        854.18529318050309     
   483.40988794706294        5.0604617144495050       -5.9326208614222242        860.11791404192536     
   485.35851803819600        5.0603320851027194       -5.9409381976636810        866.05885223958899     
   487.11228512021574        5.0602147421787613       -5.9485610790693686        872.00741331865834     
   488.86605220223549        5.0600967152934677       -5.9563217101882762        877.96373502884660     
   490.61981928425524        5.0599779970097725       -5.9642205479982966        883.92795557684485     
   492.37358636627499        5.0598585799040396       -5.9722580362978421        889.90021361314268     
   494.12735344829474        5.0597384565671240       -5.9804346057116122        895.88064821885428     
   495.88112053031449        5.0596176196054188       -5.9887506737028229        901.86939889255711     
   497.63488761233424        5.0594960616418838       -5.9972066445874459        907.86660553714455     
   499.38865469435399        5.0593737753170629       -6.0058029095523624        913.87240844669691     
   501.14242177637374        5.0592507532900912       -6.0145398466774900        919.88694829337442     
   502.89618885839349        5.0591269882396750       -6.0234178209587430        925.91036611433321     
   504.64995594041324        5.0590024728650711       -6.0324371843343805        931.94280329866763     
   506.40372302243298        5.0588771998870392       -6.0415982757184050        937.98440157438608     
   508.15749010445273        5.0587511620487886       -6.0509014210339584        944.03530299542001     
   509.91125718647248        5.0586243521169028       -6.0603469332458726        950.09564992866592     
   511.66502426849223        5.0584967628822515       -6.0699351124036642        956.16558504106956     
   513.41879135051204        5.0583683871608880       -6.0796662456825388        962.24525128675214     
   515.17255843253179        5.0582392177949371       -6.0895406074294787        968.33479189418165     
   516.92632551455154        5.0581092476534533       -6.0995584592070715        974.43435035338871     
   518.68009259657128        5.0579784696332784       -6.1097200498492050        980.54407040323792     
   520.43385967859103        5.0578468766598768       -6.1200256155102277        986.66409601874818     
   522.18762676061078        5.0577144616881551       -6.1304753797195159        992.79457139846772     
   523.94139384263053        5.0575812177032731       -6.1410695534439057        998.93564095191164     
   525.69516092465028        5.0574471377214287       -6.1518083351433823        1005.0874492870551     
   527.44892800667003        5.0573122147906382       -6.1626919108357621        1011.2501411978908     
   529.20269508868978        5.0571764419914942       -6.1737204541616730        1017.4238616520524     
   530.95646217070953        5.0570398124379148       -6.1848941264506818        1023.6087557785031     
   532.71022925272928        5.0569023180191026       -6.1962132979217772        1029.8049690764249     
   534.56922235967022        5.0567555967909872       -6.2083747847343176        1036.0133438611592     
   536.42821546661116        5.0566078875854172       -6.2207000669126113        1042.2340439280717     
   538.39874815996859        5.0564501993084221       -6.2339485162813517        1048.4679924443531     
   540.36928085332602        5.0562913818558686       -6.2473813029598428        1054.7153737473129     
   542.45804550828484        5.0561217570888779       -6.2618270202556499        1060.9772007675685     
   544.67213604254118        5.0559405074130908       -6.2773717942095590        1067.2545725617781     
   546.88622657679753        5.0557577930235693       -6.2931496979499784        1073.5477222597281     
   549.23316254310930        5.0555624591062234       -6.3101355084019000        1079.8578577681299     
   551.58009850942108        5.0553654508352963       -6.3273829919016311        1086.1852407600315     
