 #              _____________________  _______________________             #
 #              ___  __ \__  __ \_  / / /_  /___  ____/_  ___/             #
 #              __  / / /_  /_/ /  / / /_  __/_  __/  _____ \              #
 #              _  /_/ /_  _, _// /_/ / / /_ _  /___  ____/ /              #
 #              /_____/ /_/ |_| \____/  \__/ /_____/  /____/               #
 #                                                                         #
  
 #        time                      T            heat flux [W.L-2]   in    x              directions   cumulative flux
 #-----------------------------------------------------------------------------------------------

   0.0000000000000000        5.2374000000000001        5.8624924507141420        5.8624924507141420     
   1.0000000000000000        5.2373994132833506        5.8626485954665597        11.725141046180703     
   1.9540000000000002        5.2373988843146737        5.8627854469789717        17.587926493159674     
   2.8641160000000001        5.2373984054981282        5.8629060106940694        23.450832503853743     
   3.8288389600000006        5.2373979246055029        5.8630237401009566        29.313856243954699     
   4.8514452976000007        5.2373974422600131        5.8631385359502444        35.176994779904945     
   5.9354080154560007        5.2373969590215044        5.8632504879753604        41.040245267880309     
   7.0844084963833609        5.2373964753659790        5.8633599461797559        46.903605214060065     
   8.3023490061663630        5.2373959916618515        5.8634676090554336        52.767072823115498     
   9.5933659465363448        5.2373955081419563        5.8635746307435106        58.630647453859012     
   10.961843903328527        5.2373950248700112        5.8636827487892980        64.494330202648314     
   12.412430537528239        5.2373945416999295        5.8637944334828873        70.358124636131208     
   13.950052369779934        5.2373940582260659        5.8639130588409243        76.222037694972130     
   15.579931511966731        5.2373935737221746        5.8640430940261927        82.086080788998316     
   17.307603402684734        5.2373930870666161        5.8641903123986383        87.950271101396950     
   19.138935606845820        5.2373925966512500        5.8643620134744525        93.814633114871398     
   21.080147743256571        5.2373921002714408        5.8645672508979789        99.679200365769375     
   23.137832607851966        5.2373915949947945        5.8648170571780005        105.54401742294738     
   25.318978564323086        5.2373910770065946        5.8651246535492678        111.40914207649665     
   27.630993278182473        5.2373905414303987        5.8655056310668643        117.27464770756352     
   30.081728874873424        5.2373899821228846        5.8659780870927065        123.14062579465622     
   32.679508607365833        5.2373893914425143        5.8665626999479574        129.00718849460418     
   35.433155123807786        5.2373887599919140        5.8672827238305265        134.87447121843471     
   38.352020431236255        5.2373880763335308        5.8681638863678813        140.74263510480259     
   41.446017657110431        5.2373873266769824        5.8692341724485386        146.61186927725112     
   44.725654716537058        5.2373864945339124        5.8705234803802444        152.48239275763137     
   48.202069999529286        5.2373855603317976        5.8720631398594083        158.35445589749079     
   51.887070199501046        5.2373845009714595        5.8738852856633095        164.22834118315410     
   55.793170411471110        5.2373832893037484        5.8760220861526378        170.10436326930673     
   59.933636636159378        5.2373818934887266        5.8785048314802593        175.98286810078699     
   63.444751994695032        5.2373806231694999        5.8807576218271578        181.86362572261413     
   67.166534274742830        5.2373791720988532        5.8832991705637205        187.74692489317786     
   70.888316554790620        5.2373776098061038        5.8859814674078077        193.63290636058568     
   74.833405771641281        5.2373758212329946        5.8889669572110641        199.52187331779675     
   79.015200341502975        5.2373737676775027        5.8922721813754162        205.41414549917215     
   83.196994911364669        5.2373715478025336        5.8956988224918891        211.30984432166403     
   87.629697155418071        5.2373689974686375        5.8994450566921719        217.20928937835620     
   92.328361534114677        5.2373660597784699        5.9035183375823816        223.11280771593857     
   97.308945775533076        5.2373626668298510        5.9079216745967047        229.02072939053528     
   102.58836507143658        5.2373587372391475        5.9126528028786183        234.93338219341391     
   108.18454952509430        5.2373541731193702        5.9177033566790378        240.85108555009293     
   114.11650504597148        5.2373488564399402        5.9230580744946515        246.77414362458759     
   120.04846056684866        5.2373430290609111        5.9283790352325960        252.70252265982020     
   125.98041608772584        5.2373366579129046        5.9336351975059243        258.63615785732611     
   132.26828893985567        5.2373292531477196        5.9391015991116296        264.57525945643772     
   138.93343416311328        5.2373206234860330        5.9447448713689992        270.52000432780670     
   145.99848809976632        5.2373105408064520        5.9505240668572696        276.47052839466397     
   153.48744527261857        5.2372987339895545        5.9563904506379410        282.42691884530194     
   161.42573987584194        5.2372848822314140        5.9622874697446555        288.38920631504658     
   169.84033215525872        5.2372686079339683        5.9681509255182519        294.35735724056485     
   178.75979997144051        5.2372494693234399        5.9739093676136141        300.33126660817845     
   188.21443585659321        5.2372269529920699        5.9794847208010600        306.31075132897951     
   196.23196708720269        5.2372061959507441        5.9838277316463824        312.29457906062589     
   204.73055019164875        5.2371822612216148        5.9879979889611423        318.28257704958702     
   213.22913329609480        5.2371563389459714        5.9917380127283248        324.27431506231534     
   221.72771640054086        5.2371283821274854        5.9950541437858007        330.26936920610115     
   230.22629950498691        5.2370983519703991        5.9979553257674851        336.26732453186861     
   238.72488260943297        5.2370662176752125        6.0004525553538306        342.26777708722244     
   247.22346571387902        5.2370319561399175        6.0025584113315666        348.27033549855400     
   255.72204881832508        5.2369955515895832        6.0042866538527475        354.27462215240678     
   264.73054690903791        5.2369545447686630        6.0057117354451304        360.28033388785190     
   274.27955488519348        5.2369083587768790        6.0067867618315081        366.28712064968340     
   283.82856286134904        5.2368594614018233        6.0074482306149237        372.29456888029830     
   293.37757083750461        5.2368078684307857        6.0077182396535260        378.30228711995181     
   303.49951929222954        5.2367501793803219        6.0075907028134008        384.30987782276520     
   313.62146774695447        5.2366895264542537        6.0070750318155604        390.31695285458079     
   323.74341620167939        5.2366259535707940        6.0061961528115582        396.32314900739237     
   334.47268156368784        5.2365553456297302        6.0048850668826113        402.32803407427497     
   345.84570284741676        5.2364769624156473        6.0031015158902594        408.33113559016522     
   357.90110540816943        5.2363900037181352        6.0008052174987618        414.33194080766395     
   370.67983212256723        5.2362936081680678        5.9979563181291775        420.32989712579314     
   384.22528243982890        5.2361868526784852        5.9945158645554164        426.32441299034855     
   398.58345977612629        5.2360687525505440        5.9904462820432975        432.31485927239186     
   413.80312775260154        5.2359382622872808        5.9857118455756932        438.30057111796754     
   429.02279572907679        5.2358027150210322        5.9806060910583785        444.28117720902594     
   444.24246370555204        5.2356623568257756        5.9751737732994341        450.25635098232539     
   459.46213168202729        5.2355174307017656        5.9694553614944459        456.22580634381984     
   475.59497973709102        5.2353589598889423        5.9631156135919570        462.18892195741182     
   491.72782779215476        5.2351959156997694        5.9565363103731608        468.14545826778499     
   502.05285054739556        5.2350897650175199        5.9522368555199581        474.09769512330496     
   512.99737466795079        5.2349753025379613        5.9475901400603703        480.04528526336532     
   523.94189878850602        5.2348589776324035        5.9428637102801112        485.98814897364542     
   535.54309435629455        5.2347336735183596        5.9377746069215389        491.92592358056697     
   547.84036165815041        5.2345987113201264        5.9323026919494408        497.85822627251639     
   560.87546499811765        5.2344533698951361        5.9264277415673163        503.78465401408369     
   574.69267453848295        5.2342968848365787        5.9201295661570992        509.70478358024076     
   589.33891665127010        5.2341284476594927        5.9133881325239859        515.61817171276471     
   604.86393329082455        5.2339472051804741        5.9061836849199620        521.52435539768464     
   621.32045092875228        5.2337522590942847        5.8984968607416066        527.42285225842625     
   637.77696856668001        5.2335546762322132        5.8907736900424004        533.31362594846860     
   655.22087726288339        5.2333424909028903        5.8825605685934876        539.19618651706207     
   673.71142048085892        5.2331147269313369        5.8738394759300654        545.07002599299210     
   692.20196369883445        5.2328843390532951        5.8651157963797100        550.93514178937176     
   711.80193950988848        5.2326374269589397        5.8558785213314790        556.79102031070329     
   732.57791386960582        5.2323729372786465        5.8461107332943199        562.63713104399756     
   753.35388822932316        5.2321059355152251        5.8363772081626069        568.47350825216017     
   774.12986258904050        5.2318366527183553        5.8266866317325485        574.30019488389269     
   794.90583694875784        5.2315653015765449        5.8170460888839512        580.11724097277659     
   815.68181130847518        5.2312920777245520        5.8074612825116096        585.92470225528814     
   837.70434412977556        5.2310005693959463        5.7973693127233661        591.72207156801153     
   859.72687695107595        5.2307073648390885        5.7873492917658709        597.50942085977738     
   877.34490320811619        5.2304718083380877        5.7793809229508790        603.28880178272823     
   894.96292946515655        5.2302353451519856        5.7714613981467409        609.06026318087493     
   913.63803729761923        5.2299837703492278        5.7631225633322343        614.82338574420714     
   933.43365160002975        5.2297161670990313        5.7543468473396526        620.57773259154681     
   954.41700276058486        5.2294315717057769        5.7451161696714586        626.32284876121821     
   975.40035392113998        5.2291461441609233        5.7359569168359457        632.05880567805411     
   997.64270615132841        5.2288427684118250        5.7263276997337558        637.78513337778782     
   1021.2195995153281        5.2285203869719501        5.7162088694350803        643.50134224722285     
   1044.7964928793278        5.2281973117264400        5.7061764754869770        649.20751872270978     
   1068.3733862433276        5.2278736413077116        5.6962284715329110        654.90374719424267     
   1093.3648932091673        5.2275299871183822        5.6857756187652706        660.58952281300799     
   1119.8558905929574        5.2271651917369990        5.6747953243408631        666.26431813734882     
   1146.3468879767474        5.2267999729691361        5.6639108005157199        671.92822893786456     
   1172.8378853605375        5.2264344178398083        5.6531178662784445        677.58134680414298     
   1200.9183425873550        5.2260466419479554        5.6417750700317120        683.22312187417469     
   1228.9987998141726        5.2256586571358667        5.6305246255046306        688.85364649967937     
   1257.0792570409901        5.2252705310635319        5.6193610433543517        694.47300754303376     
   1286.8445417014166        5.2248590268069304        5.6076185859101457        700.08062612894389     
   1318.3957434414688        5.2244227972514361        5.5952657139844169        705.67589184292831     
   1351.8400172859240        5.2239604176085006        5.5822677402430934        711.25815958317139     
   1387.2909475610466        5.2234703779217897        5.5685861653004167        716.82674574847181     
   1424.8689336526766        5.2229510736782236        5.5541778419331687        722.38092359040502     
   1462.4469197443066        5.2224319317687726        5.5398494984703603        727.92077308887542     
   1500.0249058359366        5.2219129576661887        5.5255868249090696        733.44635991378448     
   1537.6028919275666        5.2213941388671374        5.5113753518449515        738.95773526562948     
   1577.4355571846943        5.2208443289800641        5.4963512611641026        744.45408652679362     
   1617.2682224418220        5.2202946000000487        5.4813495319466226        749.93543605874027     
   1659.4908476143773        5.2197118849791195        5.4654513879488684        755.40088744668913     
   1701.7134727869327        5.2191290500320395        5.4495351260107014        760.85042257269981     
   1746.4694554698415        5.2185109401319556        5.4326170735716630        766.28303964627150     
   1793.9107971137248        5.2178551615277220        5.4145992019535605        771.69763884822510     
   1841.3521387576081        5.2171985251030542        5.3964638460581611        777.09410269428327     
   1888.7934804014915        5.2165407198231133        5.3781776759713589        782.47228037025468     
   1939.0813025440077        5.2158417189893189        5.3585845161417147        787.83086488639640     
   1989.3691246865239        5.2151405347881159        5.3387405894760498        793.16960547587246     
   2039.6569468290402        5.2144366702428817        5.3186044782170745        798.48820995408948     
   2079.8872045430530        5.2138715925057539        5.3022872296473560        803.79049718373687     
   2122.5312777199069        5.2132700363453726        5.2847312650316480        809.07522844876848     
   2165.1753508967608        5.2126655452637589        5.2668899763623047        814.34211842513082     
   2207.8194240736148        5.2120577399641146        5.2487377177025181        819.59085614283333     
   2253.0221416410800        5.2114092690756557        5.2291164610201157        824.81997260385344     
   2298.2248592085452        5.2107561071564170        5.2090850634888159        830.02905766734227     
   2346.1397398300583        5.2100578727745184        5.1873552395558562        835.21641290689809     
   2394.0546204515713        5.2093531218776459        5.1650936362791890        840.38150654317724     
   2441.9695010730843        5.2086412008658058        5.1422656096307504        845.52377215280796     
   2492.7592745318880        5.2078777075661371        5.1173911055965444        850.64116325840450     
   2543.5490479906916        5.2071045371964360        5.0918004806672013        855.73296373907169     
   2594.3388214494953        5.2063208532542173        5.0654555818681661        860.79841932093984     
   2645.1285949082990        5.2055258056958102        5.0383195470162763        865.83673886795611     
   2698.9657547746310        5.2046692614936836        5.0086243000140369        870.84536316797016     
   2756.0331442329430        5.2037445928580217        4.9760534359485664        875.82141660391869     
   2816.5245770587535        5.2027441678147621        4.9402455332602582        880.76166213717897     
   2880.6454958541126        5.2016591751343864        4.9007881522493744        885.66245028942831     
   2948.6136697771935        5.2004794211044487        4.8572113223115938        890.51966161173993     
   3016.5818437002745        5.1992679391473864        4.8118227265019451        895.33148433824192     
   3084.5500176233554        5.1980226930478253        4.7645683988609608        900.09605273710292     
   3152.5181915464364        5.1967416856339970        4.7154001839127044        904.81145292101564     
   3220.4863654695173        5.1954229671645473        4.6642757092558389        909.47572863027153     
   3288.4545393925982        5.1940646429438875        4.6111583101112554        914.08688694038278     
   3356.4227133156792        5.1926648801819217        4.5560169202544056        918.64290386063715     
   3424.3908872387601        5.1912219140913738        4.4988259285122281        923.14172978914939     
   3492.3590611618411        5.1897340532144067        4.4395650021035609        927.58129479125296     
   3560.3272350849220        5.1881996840775617        4.3782189055799217        931.95951369683291     
   3628.2954090080029        5.1866172750654238        4.3147772722438535        936.27429096907679     
   3682.6699481464675        5.1853198528612285        4.2626794521756981        940.53697042125248     
   3740.3069596332398        5.1839083497870426        4.2059433569626643        944.74291377821510     
   3797.9439711200121        5.1824598093562457        4.1476953639805254        948.89060914219567     
   3859.0392032959908        5.1808818453783934        4.0842569856574293        952.97486612785315     
   3923.8001494025284        5.1791604464485008        4.0151142697840596        956.98998039763717     
   3992.4467522754580        5.1772798949921945        3.9397024331481605        960.92968283078528     
   4065.2121513207635        5.1752225657717137        3.8574020004489191        964.78708483123421     
   4137.9775503660694        5.1731002421374583        3.7727603993209620        968.55984523055520     
   4210.7429494113749        5.1709119946354658        3.6858040509440468        972.24564928149925     
   4283.5083484566803        5.1686570127250064        3.5965627468073142        975.84221202830656     
   4356.2737475019858        5.1663346017397718        3.5050690432708436        979.34728107157741     
   4429.0391465472912        5.1639441840180673        3.4113589850367800        982.75864005661424     
   4506.1704695353155        5.1613333802300296        3.3095811974795883        986.06822125409383     
   4583.3017925233398        5.1586451915060696        3.2054052704856679        989.27362652457953     
   4660.4331155113641        5.1558793295937999        3.0988811450280513        992.37250766960756     
   4737.5644384993884        5.1530356398104766        2.9900610919412496        995.36256876154880     
   4819.3236408666935        5.1499338527059830        2.8721963416186709        998.23476510316743     
   4901.0828432339986        5.1467447088066338        2.7518821705274634        1000.9866472736949     
