 #              _____________________  _______________________             #
 #              ___  __ \__  __ \_  / / /_  /___  ____/_  ___/             #
 #              __  / / /_  /_/ /  / / /_  __/_  __/  _____ \              #
 #              _  /_/ /_  _, _// /_/ / / /_ _  /___  ____/ /              #
 #              /_____/ /_/ |_| \____/  \__/ /_____/  /____/               #
 #                                                                         #
  
 #        time                      T            heat flux [W.L-2]   in    x              directions   cumulative flux
 #-----------------------------------------------------------------------------------------------

   0.0000000000000000        5.4707999999999997       0.83978313309574926       0.83978313309574926     
   1.0000000000000000        5.4701489819243445        1.0097796551931792        1.8495627882889285     
   1.9540000000000002        5.4695614078592163        1.1586998141508489        3.0082626024397774     
   2.8641160000000001        5.4690289838208113        1.2897501319648592        4.2980127344046366     
   3.8288389600000006        5.4684936515206397        1.4174080296902691        5.7154207640949055     
   4.8514452976000007        5.4679560669859502        1.5412852598336886        7.2567060239285937     
   5.9354080154560007        5.4674168297888803        1.6610263668066991        8.9177323907352921     
   7.0844084963833609        5.4668764701943520        1.7763147954294380        10.694047186164731     
   8.3023490061663630        5.4663354372507511        1.8868784541874783        12.580925640352209     
   9.5933659465363448        5.4657940882632197        1.9924945299120547        14.573420170264264     
   10.961843903328527        5.4652526800787564        2.0929933611213403        16.666413531385604     
   12.412430537528239        5.4647113625795720        2.1882611984970950        18.854674729882699     
   13.950052369779934        5.4641701747251528        2.2782417130642361        21.132916442946936     
   15.579931511966731        5.4636290434046364        2.3629361548926093        23.495852597839544     
   17.307603402684734        5.4630877852616182        2.4424021160562495        25.938254713895795     
   19.138935606845820        5.4625461115372742        2.5167509087277953        28.455005622623588     
   21.080147743256571        5.4620036358504933        2.5861436294831579        31.041149252106745     
   23.137832607851966        5.4614598847027302        2.6507860403777324        33.691935292484480     
   25.318978564323086        5.4609143103688096        2.7109224519273023        36.402857744411783     
   27.630993278182473        5.4603663057213847        2.7668288388472182        39.169686583259001     
   30.081728874873424        5.4598152204445061        2.8188054525311004        41.988492035790102     
   32.679508607365833        5.4592603780276239        2.8671692121480712        44.855661247938173     
   35.433155123807786        5.4587010929002462        2.9122461572843394        47.767907405222509     
   38.352020431236255        5.4581366870719004        2.9543642292057566        50.722271634428267     
   41.446017657110431        5.4575665056812328        2.9938466164689466        53.716118250897210     
   44.725654716537058        5.4569899309287511        3.0310058565486253        56.747124107445835     
   48.202069999529286        5.4564063939635563        3.0661388324070842        59.813262939852919     
   51.887070199501046        5.4558153844076962        3.0995227459471657        62.912785685800088     
   55.793170411471110        5.4552164573232504        3.1314120939338230        66.044197779733906     
   59.933636636159378        5.4546092375479907        3.1620366205007908        69.206234400234692     
   63.444751994695032        5.4541124846822173        3.1860826702982519        72.392317070532940     
   67.166534274742830        5.4536046133369620        3.2097488572946271        75.602065927827567     
   70.888316554790620        5.4531139451931274        3.2318606713076155        78.833926599135182     
   74.833405771641281        5.4526116466700074        3.2538049150223332        82.087731514157511     
   79.015200341502975        5.4520976600549274        3.2756234065617451        85.363354920719260     
   83.196994911364669        5.4516007631005525        3.2961877326687294        88.659542653387987     
   87.629697155418071        5.4510918394289147        3.3167550259817200        91.976297679369708     
   92.328361534114677        5.4505708905730970        3.3373422845674523        95.313639963937163     
   97.308945775533076        5.4500379408166344        3.3579610675240854        98.671601031461250     
   102.58836507143658        5.4494930348844033        3.3786172978621973        102.05021832932344     
   108.18454952509430        5.4489362349228525        3.3993111744561788        105.44952950377962     
   114.11650504597148        5.4483676168042230        3.4200371841151940        108.86956668789480     
   120.04846056684866        5.4478190050278883        3.4396693848718822        112.30923607276668     
   125.98041608772584        5.4472889831015010        3.4583043744025712        115.76754044716925     
   132.26828893985567        5.4467465387395473        3.4770336563478814        119.24457410351714     
   138.93343416311328        5.4461917159589346        3.4958336988538949        122.74040780237104     
   145.99848809976632        5.4456245571019686        3.5146772953207703        126.25508509769180     
   153.48744527261857        5.4450450979280056        3.5335337221228267        129.78861881981464     
   161.42573987584194        5.4444533623231006        3.5523689473717139        133.34098776718636     
   169.84033215525872        5.4438493566771049        3.5711458872939166        136.91213365448027     
   178.75979997144051        5.4432330639786173        3.5898247060257691        140.50195836050605     
   188.21443585659321        5.4426044376766196        3.6083631536707585        144.11032151417680     
   196.23196708720269        5.4420878328792197        3.6232398153827305        147.73356132955954     
   204.73055019164875        5.4415573941369724        3.6381280918600396        151.37168942141957     
   213.22913329609480        5.4410429026374505        3.6521961045484010        155.02388552596798     
   221.72771640054086        5.4405432565597742        3.6654989265848310        158.68938445255282     
   230.22629950498691        5.4400574542453777        3.6780867099315762        162.36747116248438     
   238.72488260943297        5.4395845829020075        3.6900052825594818        166.05747644504385     
   247.22346571387902        5.4391238088292342        3.7012966454751961        169.75877309051904     
   255.72204881832508        5.4386743689239720        3.7119993913404983        173.47077248185954     
   264.73054690903791        5.4382098681105973        3.7227250663660598        177.19349754822559     
   274.27955488519348        5.4377299749319867        3.7334443916383777        180.92694193986398     
   283.82856286134904        5.4372617389984672        3.7435558671415263        184.67049780700552     
   293.37757083750461        5.4368044101949220        3.7530980857784959        188.42359589278402     
   303.49951929222954        5.4363310823803310        3.7626152881984893        192.18621118098253     
   313.62146774695447        5.4358684509980044        3.7715735074010843        195.95778468838361     
   323.74341620167939        5.4354158345026882        3.7800081544249231        199.73779284280855     
   334.47268156368784        5.4349465724989576        3.7883991910902099        203.52619203389875     
   345.84570284741676        5.4344601615405335        3.7967179824042958        207.32291001630304     
   357.90110540816943        5.4339560636265256        3.8049344097934017        211.12784442609643     
   370.67983212256723        5.4334337008578348        3.8130169129691591        214.94086133906558     
   384.22528243982890        5.4328924495419813        3.8209325250925326        218.76179386415811     
   398.58345977612629        5.4323316337150676        3.8286468964152514        222.59044076057336     
   413.80312775260154        5.4317505180481653        3.8361243013735025        226.42656506194686     
   429.02279572907679        5.4311817090686159        3.8429556036994255        230.26952066564630     
   444.24246370555204        5.4306242650495964        3.8491890672093052        234.11870973285559     
   459.46213168202729        5.4300773329119600        3.8548681328327503        237.97357786568836     
   475.59497973709102        5.4295084781537124        3.8603114108072583        241.83388927649563     
   491.72782779215476        5.4289496853139543        3.8652198388770649        245.69910911537269     
   502.05285054739556        5.4285959746803805        3.8681523574471122        249.56726147281981     
   512.99737466795079        5.4282252141541107        3.8710374410933754        253.43829891391317     
   523.94189878850602        5.4278584124854925        3.8737096718675379        257.31200858578069     
   535.54309435629455        5.4274738126679249        3.8763147284013044        261.18832331418201     
   547.84036165815041        5.4270706025145490        3.8788333143448654        265.06715662852690     
   560.87546499811765        5.4266479241192673        3.8812443703079014        268.94840099883481     
   574.69267453848295        5.4262048692613192        3.8835249736225763        272.83192597245738     
   589.33891665127010        5.4257404742646962        3.8856502313733476        276.71757620383073     
   604.86393329082455        5.4252537142670452        3.8875931651170617        280.60516936894777     
   621.32045092875228        5.4247434968506685        3.8893245851655722        284.49449395411335     
   637.77696856668001        5.4242386311275164        3.8907462300476623        288.38524018416103     
   655.22087726288339        5.4237090526067631        3.8919249741870505        292.27716515834811     
   673.71142048085892        5.4231534943774209        3.8928271479621235        296.16999230631023     
   692.20196369883445        5.4226032961877744        3.8934015421929864        300.06339384850321     
   711.80193950988848        5.4220256343327566        3.8936631494336464        303.95705699793683     
   732.57791386960582        5.4214190309533707        3.8935728664265659        307.85062986436338     
   753.35388822932316        5.4208176737149323        3.8931353565131257        311.74376522087653     
   774.12986258904050        5.4202211295843501        3.8923689683042353        315.63613418918078     
   794.90583694875784        5.4196290003295466        3.8912902185759175        319.52742440775671     
   815.68181130847518        5.4190409187603104        3.8899139431122398        323.41733835086893     
   837.70434412977556        5.4184216976539048        3.8881365069128053        327.30547485778175     
   859.72687695107595        5.4178062499757509        3.8860543891569894        331.19152924693873     
   877.34490320811619        5.4173161277663411        3.8842001144151772        335.07572936135392     
   894.96292946515655        5.4168280726871334        3.8821630063799009        338.95789236773385     
   913.63803729761923        5.4163128674739092        3.8798042826782444        342.83769665041211     
   933.43365160002975        5.4157689340992761        3.8770862317529167        346.71478288216503     
   954.41700276058486        5.4151945798673715        3.8739666279029250        350.58874951006794     
   975.40035392113998        5.4146222142926002        3.8706136922193100        354.45936320228725     
   997.64270615132841        5.4140174849795279        3.8668021771904018        358.32616537947763     
   1021.2195995153281        5.4133784036906105        3.8624767994474425        362.18864217892508     
   1044.7964928793278        5.4127409750723352        3.8578687315911409        366.04651091051625     
   1068.3733862433276        5.4121049295706927        3.8529789557994536        369.89948986631572     
   1093.3648932091673        5.4114319637321744        3.8474786292411576        373.74696849555687     
   1119.8558905929574        5.4107196532957840        3.8412889931573155        377.58825748871419     
   1146.3468879767474        5.4100080193780826        3.8347350946006449        381.42299258331485     
   1172.8378853605375        5.4092967084098333        3.8278100314458143        385.25080261476069     
   1200.9183425873550        5.4085426617647787        3.8200419311271454        389.07084454588784     
   1228.9987998141726        5.4077881369554133        3.8118337016947503        392.88267824758259     
   1257.0792570409901        5.4070327094782851        3.8031708153177708        396.68584906290039     
   1286.8445417014166        5.4062304299839790        3.7934577955443984        400.47930685844477     
   1318.3957434414688        5.4053776780549949        3.7825403838242790        404.26184724226903     
   1351.8400172859240        5.4044703815835602        3.7702361950209138        408.03208343728994     
   1387.2909475610466        5.4035039287017561        3.7563291120590621        411.78841254934900     
   1424.8689336526766        5.4024730597426416        3.7405627006035718        415.52897524995257     
   1462.4469197443066        5.4014346049245194        3.7237159119695029        419.25269116192209     
   1500.0249058359366        5.4003873780510947        3.7057318829407513        422.95842304486285     
   1537.6028919275666        5.3993301651906762        3.6865530215703068        426.64497606643317     
   1577.4355571846943        5.3981968214847589        3.6648122219105548        430.30978828834373     
   1617.2682224418220        5.3970492736869247        3.6415921851429904        433.95138047348672     
   1659.4908476143773        5.3958150899557946        3.6152375874938691        437.56661806098060     
   1701.7134727869327        5.3945612767291529        3.5870649033524784        441.15368296433309     
   1746.4694554698415        5.3932079600827905        3.5550718280572182        444.70875479239032     
   1793.9107971137248        5.3917435145956283        3.5186682880623614        448.22742308045270     
   1841.3521387576081        5.3902464852483956        3.4796834651259210        451.70710654557860     
   1888.7934804014915        5.3887142316108019        3.4380348082583332        455.14514135383695     
   1939.0813025440077        5.3870473534699084        3.3908064075691535        458.53594776140608     
   1989.3691246865239        5.3853347237828064        3.3404205038751402        461.87636826528120     
   2039.6569468290402        5.3835733437052111        3.2868117340275020        465.16317999930868     
   2079.8872045430530        5.3821315344453931        3.2418333460458286        468.40501334535452     
   2122.5312777199069        5.3805647203848652        3.1917779819504579        471.59679132730497     
   2165.1753508967608        5.3789577101088746        3.1393218401560641        474.73611316746104     
   2207.8194240736148        5.3773088567785630        3.0844481734934552        477.82056134095450     
   2253.0221416410800        5.3755121683674947        3.0235529316277390        480.84411427258226     
   2298.2248592085452        5.3736647638455448        2.9599225811213432        483.80403685370362     
   2346.1397398300583        5.3716474739398645        2.8894024166623873        486.69343927036601     
   2394.0546204515713        5.3695691924811335        2.8158193868103849        489.50925865717642     
   2441.9695010730843        5.3674280785739263        2.7391901917062906        492.24844884888273     
   2492.7592745318880        5.3650858474888317        2.6545691225640100        494.90301797144673     
   2543.5490479906916        5.3626690570573174        2.5665907190938695        497.46960869054061     
   2594.3388214494953        5.3601759423276336        2.4752993917811104        499.94490808232172     
   2645.1285949082990        5.3576048827744076        2.3807465959263041        502.32565467824804     
   2698.9657547746310        5.3547902304566168        2.2769247837702524        504.60257946201830     
   2756.0331442329430        5.3517044691109437        2.1629243228779256        506.76550378489623     
   2816.5245770587535        5.3483167627633108        2.0377651041347002        508.80326888903090     
   2880.6454958541126        5.3445925953243414        1.9003946711342421        510.70366356016513     
   2948.6136697771935        5.3404933958581182        1.7496905031804741        512.45335406334561     
   3016.5818437002745        5.3362411027968673        1.5940969514064800        514.04745101475214     
   3084.5500176233554        5.3318345799576541        1.4338199324725049        515.48127094722463     
   3152.5181915464364        5.3272730588555088        1.2690731088571325        516.75034405608176     
   3220.4863654695173        5.3225561156365888        1.1000743630938394        517.85041841917564     
   3288.4545393925982        5.3176836629214144       0.92704237290862390        518.77746079208430     
   3356.4227133156792        5.3126559142067489       0.75019787178830233        519.52765866387256     
   3424.3908872387601        5.3074733696783234       0.56976119450672968        520.09741985837934     
   3492.3590611618411        5.3021367978120777       0.38595106173644644        520.48337092011582     
   3560.3272350849220        5.2966472111094598       0.19898431275083908        520.68235523286671     
   3628.2954090080029        5.2910058505525885        9.0744219601997609E-003   520.69142965482695     
   3682.6699481464675        5.2863963494339412      -0.14462897737388888        520.83605863220089     
   3740.3069596332398        5.2814029101097058      -0.30942361995489964        521.14548225215583     
   3797.9439711200121        5.2763031580734596      -0.47596342670703423        521.62144567886287     
   3859.0392032959908        5.2707793333242563      -0.65431244164025570        522.27575812050316     
   3923.8001494025284        5.2647931463598487      -0.84523655431851474        523.12099467482165     
   3992.4467522754580        5.2583028983546498       -1.0495286961181414        524.17052337093980     
   4065.2121513207635        5.2512632468704723       -1.2680049765800605        525.43852834751988     
   4137.9775503660694        5.2440665564416378       -1.4881933095404438        526.92672165706028     
   4210.7429494113749        5.2367158989115952       -1.7098874087210818        528.63660906578139     
   4283.5083484566803        5.2292144520266390       -1.9328892099055761        530.56949827568701     
   4356.2737475019858        5.2215654842321264       -2.1570089094078306        532.72650718509487     
   4429.0391465472912        5.2137723406158027       -2.3820649358610813        535.10857212095596     
   4506.1704695353155        5.2053536750710645       -2.6214707199439937        537.73004284089996     
   4583.3017925233398        5.1967812025792686       -2.8615270146151106        540.59156985551510     
   4660.4331155113641        5.1880590979004326       -3.1020481780117035        543.69361803352683     
   4737.5644384993884        5.1791915709131864       -3.3428583953073074        547.03647642883413     
   4819.3236408666935        5.1696336366337814       -3.5982450631233447        550.63472149195752     
   4901.0828432339986        5.1599224011494904       -3.8535738771458066        554.48829536910330     
