 #              _____________________  _______________________             #
 #              ___  __ \__  __ \_  / / /_  /___  ____/_  ___/             #
 #              __  / / /_  /_/ /  / / /_  __/_  __/  _____ \              #
 #              _  /_/ /_  _, _// /_/ / / /_ _  /___  ____/ /              #
 #              /_____/ /_/ |_| \____/  \__/ /_____/  /____/               #
 #                                                                         #
  
 #        time                      T            heat flux [W.L-2]   in    x              directions   cumulative flux
 #-----------------------------------------------------------------------------------------------

   0.0000000000000000        5.5797999999999996       -5.0280511839554975        5.0280511839554975     
   1.0000000000000000        5.5792416474093143       -4.8822378053035136        9.9102889892590120     
   1.9540000000000002        5.5787377076912152       -4.7545036184561553        14.664792607715167     
   2.8641160000000001        5.5782810674428029       -4.6420983645827896        19.306890972297957     
   3.8288389600000006        5.5778219319998357       -4.5326050548399301        23.839496027137887     
   4.8514452976000007        5.5773608634138734       -4.4263581605085234        28.265854187646411     
   5.9354080154560007        5.5768983747978735       -4.3236649135187841        32.589519101165195     
   7.0844084963833609        5.5764349189676281       -4.2248004050294545        36.814319506194650     
   8.3023490061663630        5.5759708777336909       -4.1300032239535032        40.944322730148151     
   9.5933659465363448        5.5755065521680045       -4.0394718116247050        44.983794541772859     
   10.961843903328527        5.5750421541493775       -3.9533616953002340        48.937156237073090     
   12.412430537528239        5.5745777994529497       -3.8717837393153034        52.808939976388395     
   13.950052369779934        5.5741135025907234       -3.7948035182637176        56.603743494652115     
   15.579931511966731        5.5736491735347400       -3.7224418724850810        60.326185367137192     
   17.307603402684734        5.5731846163647818       -3.6546766540227194        63.980862021159915     
   19.138935606845820        5.5727195297837353       -3.5914456137816768        67.572307634941595     
   21.080147743256571        5.5722535093426169       -3.5326503213748310        71.104957956316426     
   23.137832607851966        5.5717860511216815       -3.4781609523098891        74.583118908626318     
   25.318978564323086        5.5713165565322944       -3.4278217272148432        78.010940635841166     
   27.630993278182473        5.5708443378447434       -3.3814567492746646        81.392397385115828     
   30.081728874873424        5.5703686240167336       -3.3388759628095777        84.731273347925409     
   32.679508607365833        5.5698885664008184       -3.2998809508581521        88.031154298783562     
   35.433155123807786        5.5694032439483196       -3.2642703040829240        91.295424602866490     
   38.352020431236255        5.5689116676005863       -3.2318443268533743        94.527268929719867     
   41.446017657110431        5.5684127836602864       -3.2024088965640378        97.729677826283904     
   44.725654716537058        5.5679054760569766       -3.1757783549493492        100.90545618123325     
   48.202069999529286        5.5673885675507275       -3.1517773796549169        104.05723356088816     
   51.887070199501046        5.5668608200426064       -3.1302418542615715        107.18747541514973     
   55.793170411471110        5.5663209342683260       -3.1110188187389545        110.29849423388869     
   59.933636636159378        5.5657675492307677       -3.0939656342871604        113.39245986817585     
   63.444751994695032        5.5653102989669971       -3.0815335408688509        116.47399340904470     
   67.166534274742830        5.5648375503583507       -3.0702859390865096        119.54427934813120     
   70.888316554790620        5.5643754101646774       -3.0606818586457036        122.60496120677691     
   74.833405771641281        5.5638961261487552       -3.0520677583539570        125.65702896513086     
   79.015200341502975        5.5633986403866977       -3.0444226273775166        128.70145159250839     
   83.196994911364669        5.5629105785663526       -3.0380364400888782        131.73948803259728     
   87.629697155418071        5.5624026863505529       -3.0324581385753744        134.77194617117266     
   92.328361534114677        5.5618738074295226       -3.0276635611404226        137.79960973231309     
   97.308945775533076        5.5613227256283837       -3.0236221111952601        140.82323184350835     
   102.58836507143658        5.5607481675256452       -3.0202962127638617        143.84352805627222     
   108.18454952509430        5.5601488060367101       -3.0176408375703132        146.86116889384255     
   114.11650504597148        5.5595232649500801       -3.0156031347761107        149.87677202861866     
   120.04846056684866        5.5589066085656667       -3.0141778180232883        152.89094984664194     
   125.98041608772584        5.5582980896063896       -3.0132293016649103        155.90417914830687     
   132.26828893985567        5.5576614647404607       -3.0126276254612034        158.91680677376806     
   138.93343416311328        5.5569953603760149       -3.0123162810271968        161.92912305479527     
   145.99848809976632        5.5562983727440916       -3.0122319491388216        164.94135500393409     
   153.48744527261857        5.5555690730685487       -3.0123053361191254        167.95366034005320     
   161.42573987584194        5.5548060122190543       -3.0124626055482264        170.96612294560143     
   169.84033215525872        5.5540077240468735       -3.0126276499169742        173.97875059551839     
   178.75979997144051        5.5531727262015034       -3.0127255386815444        176.99147613419993     
   188.21443585659321        5.5522995166495486       -3.0126875945794973        180.00416372877942     
   196.23196708720269        5.5515672134199852       -3.0125351911188911        183.01669891989832     
   204.73055019164875        5.5507997604168802       -3.0122334389775998        186.02893235887592     
   213.22913329609480        5.5500407209692062       -3.0118010491867602        189.04073340806269     
   221.72771640054086        5.5492897346849963       -3.0112606649421774        192.05199407300486     
   230.22629950498691        5.5485464460954370       -3.0106466975481401        195.06264077055300     
   238.72488260943297        5.5478104967221293       -3.0100042298417327        198.07264500039474     
   247.22346571387902        5.5470815184644096       -3.0093880650952949        201.08203306549004     
   255.72204881832508        5.5463591280886693       -3.0088618722251130        204.09089493771515     
   264.73054690903791        5.5456003148423498       -3.0084911633558691        207.09938610107102     
   274.27955488519348        5.5448031369140791       -3.0084222095089435        210.10780831057997     
   283.82856286134904        5.5440124679902461       -3.0088011906799230        213.11660950125989     
   293.37757083750461        5.5432276058936640       -3.0097608487365446        216.12637034999642     
   303.49951929222954        5.5424012774617708       -3.0115979979965100        219.13796834799294     
   313.62146774695447        5.5415796104404134       -3.0144301415345565        222.15239848952749     
   323.74341620167939        5.5407615753978723       -3.0184382476359493        225.17083673716343     
   334.47268156368784        5.5398972312876147       -3.0242288339289978        228.19506557109241     
   345.84570284741676        5.5389824846256568       -3.0323657980865839        231.22743136917899     
   357.90110540816943        5.5380123978165008       -3.0435548661884626        234.27098623536745     
   370.67983212256723        5.5369809622624597       -3.0586706710178846        237.32965690638534     
   384.22528243982890        5.5358808191876392       -3.0787864482671075        240.40844335465243     
   398.58345977612629        5.5347029205027756       -3.1052057387533267        243.51364909340577     
   413.80312775260154        5.5334361224920743       -3.1394951409606140        246.65314423436638     
   429.02279572907679        5.5321459544217175       -3.1805870450211184        249.83373127938751     
   444.24246370555204        5.5308271997155076       -3.2289528593519790        253.06268413873948     
   459.46213168202729        5.5294746153008374       -3.2850140001216719        256.34769813886118     
   475.59497973709102        5.5279966446821955       -3.3535208237920058        259.70121896265317     
   491.72782779215476        5.5264683012257745       -3.4314773066238518        263.13269626927701     
   502.05285054739556        5.5254679373078828       -3.4853249374657613        266.61802120674275     
   512.99737466795079        5.5243807154295759       -3.5469346380259692        270.16495584476871     
   523.94189878850602        5.5232648287788964       -3.6131482008852736        273.77810404565400     
   535.54309435629455        5.5220476567446690       -3.6885766092467018        277.46668065490070     
   547.84036165815041        5.5207164248020151       -3.7744818252039596        281.24116248010466     
   560.87546499811765        5.5192564017315719       -3.8722754016924328        285.11343788179710     
   574.69267453848295        5.5176506047663230       -3.9835292170710042        289.09696709886811     
   589.33891665127010        5.5158794700717753       -4.1099852652999287        293.20695236416805     
   604.86393329082455        5.5139204874146346       -4.2535640094903648        297.46051637365844     
   621.32045092875228        5.5117477986948353       -4.4163707159422536        301.87688708960070     
   637.77696856668001        5.5094747795870394       -4.5896485633928323        306.46653565299351     
   655.22087726288339        5.5069481219641521       -4.7848732880533937        311.25140894104692     
   673.71142048085892        5.5041332669788536       -5.0044827107613887        316.25589165180833     
   692.20196369883445        5.5011775023596954       -5.2364134834177500        321.49230513522610     
   711.80193950988848        5.4978815913288663       -5.4956419248000463        326.98794706002616     
   732.57791386960582        5.4942004818434205       -5.7848615696512775        332.77280862967746     
   753.35388822932316        5.4903281848858470       -6.0878821629085547        338.86069079258601     
   774.12986258904050        5.4862616998668825       -6.4040375836587211        345.26472837624476     
   794.90583694875784        5.4819987325959421       -6.7326396844519474        351.99736806069672     
   815.68181130847518        5.4775376568966649       -7.0729850871062876        359.07035314780302     
   837.70434412977556        5.4725851751986232       -7.4460973287936243        366.51645047659662     
   859.72687695107595        5.4674085424457113       -7.8307025045924883        374.34715298118908     
   877.34490320811619        5.4631238546506964       -8.1453051347385816        382.49245811592766     
   894.96292946515655        5.4586961271251209       -8.4663923260227989        390.95885044195046     
   913.63803729761923        5.4538427379110406       -8.8135184076143762        399.77236884956483     
   933.43365160002975        5.4485195981363805       -9.1884809020377336        408.96084975160255     
   954.41700276058486        5.4426783403482730       -9.5931126641770614        418.55396241577961     
   975.40035392113998        5.4366406274086971       -10.004227843121036        428.55819025890065     
   997.64270615132841        5.4300230643498013       -10.446498718679953        439.00468897758060     
   1021.2195995153281        5.4227682116279308       -10.921681040543085        449.92637001812369     
   1044.7964928793278        5.4152778015685650       -11.402358582655056        461.32872860077873     
   1068.3733862433276        5.4075568853212808       -11.887690910883894        473.21641951166265     
   1093.3648932091673        5.3991201241060480       -12.406426368071633        485.62284587973426     
   1119.8558905929574        5.3899013703140586       -12.960042148389196        498.58288802812348     
   1146.3468879767474        5.3804151507957227       -13.516431641787618        512.09931966991110     
   1172.8378853605375        5.3706699951539436       -14.074688344918918        526.17400801483006     
   1200.9183425873550        5.3600595040572259       -14.667553783134803        540.84156179796491     
   1228.9987998141726        5.3491787714916219       -15.260636757635258        556.10219855560013     
   1257.0792570409901        5.3380381769257657       -15.853126683437157        571.95532523903728     
   1286.8445417014166        5.3259494420343740       -16.479633067918183        588.43495830695542     
   1318.3957434414688        5.3128355473556361       -17.141084869224098        605.57604317617950     
   1351.8400172859240        5.2986148227514516       -17.838275805930170        623.41431898210965     
   1387.2909475610466        5.2832009924107250       -18.571834966097772        641.98615394820740     
   1424.8689336526766        5.2665032940656289       -19.342194725277523        661.32834867348492     
   1462.4469197443066        5.2494687476637969       -20.104395202657489        681.43274387614247     
   1500.0249058359366        5.2321188787645312       -20.857604996894654        702.29034887303715     
   1537.6028919275666        5.2144745494359963       -21.601090932511077        723.89143980554820     
   1577.4355571846943        5.1954647112247745       -22.377496745244546        746.26893655079277     
   1617.2682224418220        5.1761712250552971       -23.141540137598611        769.41047668839133     
   1659.4908476143773        5.1554280134094856       -23.936850432287798        793.34732712067910     
   1701.7134727869327        5.1344182499873305       -24.717003497879201        818.06433061855830     
   1746.4694554698415        5.1118774817826749       -25.526384536190406        843.59071515474875     
   1793.9107971137248        5.0877132689834959       -26.364089691348887        869.95480484609766     
   1841.3521387576081        5.0633090489251851       -27.181239118560157        897.13604396465780     
   1888.7934804014915        5.0386938857900567       -27.977680129519577        925.11372409417743     
   1939.0813025440077        5.0123969256622765       -28.798644036795110        953.91236813097248     
   1989.3691246865239        4.9859248013142476       -29.596493275257718        983.50886140623015     
   2039.6569468290402        4.9593048902142076       -30.371499846398400        1013.8803612526285     
   2079.8872045430530        4.9379274800487192       -30.977058847173570        1044.8574200998021     
   2122.5312777199069        4.9151903856821573       -31.602975485878783        1076.4603955856808     
   2165.1753508967608        4.8923897698042440       -32.213180857533914        1108.6735764432146     
   2207.8194240736148        4.8695382716703861       -32.807943683809661        1141.4815201270244     
   2253.0221416410800        4.8452725653700099       -33.421357932529759        1174.9028780595540     
   2298.2248592085452        4.8209769510062497       -34.018038693510228        1208.9209167530644     
   2346.1397398300583        4.7952047298483897       -34.632069080727881        1243.5529858337923     
   2394.0546204515713        4.7694275307558618       -35.227978089131796        1278.7809639229240     
   2441.9695010730843        4.7436584739895604       -35.806081808459453        1314.5870457313836     
   2492.7592745318880        4.7163671378240153       -36.399230202956630        1350.9862759343403     
   2543.5490479906916        4.6891135604269625       -36.973094240675543        1387.9593701750157     
   2594.3388214494953        4.6619107466677381       -37.528056733974068        1425.4874269089898     
   2645.1285949082990        4.6347707649410275       -38.064539220700965        1463.5519661296908     
   2698.9657547746310        4.6060860775552595       -38.613005349266714        1502.1649714789576     
   2756.0331442329430        4.5757883781229118       -39.172387472084111        1541.3373589510418     
   2816.5245770587535        4.5438090480588293       -39.741507387067927        1581.0788663381097     
   2880.6454958541126        4.5100793904847043       -40.319088940330602        1621.3979552784403     
   2948.6136697771935        4.4745308001667610       -40.903780028474259        1662.3017353069147     
   3016.5818437002745        4.4392001125794813       -41.462270219266017        1703.7640055261807     
   3084.5500176233554        4.4040980116816542       -41.995902037832842        1745.7599075640135     
   3152.5181915464364        4.3692333869418327       -42.505913832044307        1788.2658213960578     
   3220.4863654695173        4.3346139309678460       -42.993387670650662        1831.2592090667085     
   3288.4545393925982        4.3002463874455295       -43.459301188322463        1874.7185102550311     
   3356.4227133156792        4.2661366155194695       -43.904572503421626        1918.6230827584527     
   3424.3908872387601        4.2322897451914532       -44.330047539226179        1962.9531302976789     
   3492.3590611618411        4.1987105139586625       -44.736451439964597        2007.6895817376435     
   3560.3272350849220        4.1654036164855839       -45.124366899515159        2052.8139486371588     
   3628.2954090080029        4.1323736331772247       -45.494325023911763        2098.3082736610704     
   3682.6699481464675        4.1061289866215649       -45.779100342488341        2144.0873740035586     
   3740.3069596332398        4.0785131414309310       -46.068832971341287        2190.1562069748998     
   3797.9439711200121        4.0511021042041371       -46.346925086383315        2236.5031320612829     
   3859.0392032959908        4.0222773534439344       -46.629214741379606        2283.1323468026626     
   3923.8001494025284        3.9919829974514593       -46.915057432942760        2330.0474042356054     
   3992.4467522754580        3.9601629516211516       -47.203702644587509        2377.2511068801928     
   4065.2121513207635        3.9267612382892949       -47.494297935268236        2424.7454048154609     
   4137.9775503660694        3.8936864222636736       -47.770172784523375        2472.5155775999842     
   4210.7429494113749        3.8609377839780397       -48.031898713001937        2520.5474763129860     
   4283.5083484566803        3.8285145051852707       -48.280011693491289        2568.8274880064773     
   4356.2737475019858        3.7964155323520110       -48.515046813850013        2617.3425348203273     
   4429.0391465472912        3.7646393503463083       -48.737584367837464        2666.0801191881646     
   4506.1704695353155        3.7313160957507150       -48.960284438715256        2715.0404036268801     
   4583.3017925233398        3.6983482976025810       -49.170627337017834        2764.2110309638979     
   4660.4331155113641        3.6657319601037281       -49.369217789500460        2813.5802487533983     
   4737.5644384993884        3.6334642774510630       -49.556340982376874        2863.1365897357750     
   4819.3236408666935        3.5996505275697159       -49.741915852233248        2912.8785055880085     
   4901.0828432339986        3.5662259015939357       -49.914886858238944        2962.7933924462473     
