 #              _____________________  _______________________             #
 #              ___  __ \__  __ \_  / / /_  /___  ____/_  ___/             #
 #              __  / / /_  /_/ /  / / /_  __/_  __/  _____ \              #
 #              _  /_/ /_  _, _// /_/ / / /_ _  /___  ____/ /              #
 #              /_____/ /_/ |_| \____/  \__/ /_____/  /____/               #
 #                                                                         #
  
 #        time                      T            heat flux [W.L-2]   in    x              directions   cumulative flux
 #-----------------------------------------------------------------------------------------------

   0.0000000000000000        5.1906999999999996       -4.1882249698496397        4.1882249698496397     
   1.0000000000000000        4.8188379659505545       -101.34329633493186        105.53152130478151     
   1.9540000000000002        4.4951007575186610       -183.41618719596758        288.94770850074906     
   2.8641160000000001        4.2116400920369195       -253.09337965109407        542.04108815184316     
   3.8288389600000006        3.9357591012933093       -318.60653667891603        860.64762483075924     
   4.8514452976000007        3.6680599245480567       -379.75255541964964        1240.4001802504090     
   5.9354080154560007        3.4090453435974339       -436.37506879207046        1676.7752490424796     
   7.0844084963833609        3.1591099645208689       -488.36750092324144        2165.1427499657211     
   8.3023490061663630        2.9185339013614024       -535.67497962064340        2700.8177295863643     
   9.5933659465363448        2.6874793156197372       -578.29497831080414        3279.1127078971685     
   10.961843903328527        2.4659900651276656       -616.27660458430751        3895.3893124814758     
   12.412430537528239        2.2539945909951622       -649.71850675120140        4545.1078192326768     
   13.950052369779934        2.0513120273158401       -678.76543128721869        5223.8732505198950     
   15.579931511966731        1.8576613629665024       -703.60352939698032        5927.4767799168749     
   17.307603402684734        1.6726733279985742       -724.45457592129901        6651.9313558381737     
   19.138935606845820        1.4959045300735856       -741.56932365694445        7393.5006794951178     
   21.080147743256571        1.3268532409532403       -755.22026582337105        8148.7209453184887     
   23.137832607851966        1.1649761404334014       -765.69411418981099        8914.4150595082992     
   25.318978564323086        1.0097052746846440       -773.28431641631755        9687.6993759246161     
   27.630993278182473       0.86046448403614928       -778.28393101425820        10465.983306938875     
   30.081728874873424       0.71668460402358969       -780.97915139100132        11246.962458329876     
   32.679508607365833       0.57781684047255910       -781.64372321289841        12028.606181542775     
   35.433155123807786       0.44334385708806073       -780.53443542415073        12809.140616966926     
   38.352020431236255       0.31278828067460629       -777.88779017011211        13587.028407137039     
   41.446017657110431       0.18571850968984460       -773.91787736374715        14360.946284500786     
   44.725654716537058        6.1751889739176002E-002  -768.81540299924575        15129.761687500031     
   48.202069999529286       -5.9444521320019594E-002  -762.74775348208016        15892.509440982112     
   51.887070199501046      -0.17815524948935652       -755.85992688407907        16648.369367866191     
   55.793170411471110      -0.29461932834790100       -866.40528029620452        17514.774648162394     
   59.933636636159378      -0.40903437860463460       -921.46497189055560        18436.239620052951     
   63.444751994695032      -0.49808629804522092       -742.78948883824842        19179.029108891198     
   67.166534274742830      -0.52400185092587481       -717.09294387213652        19896.122052763334     
   70.888316554790620      -0.54325626073920996       -738.34999834693997        20634.472051110275     
   74.833405771641281      -0.56003398018301831       -706.48554352113013        21340.957594631403     
   79.015200341502975      -0.57677042407574675       -679.71351992641962        22020.671114557823     
   83.196994911364669      -0.58905944996159443       -659.47739533316826        22680.148509890991     
   87.629697155418071      -0.60035951763149842       -642.11980854802141        23322.268318439012     
   92.328361534114677      -0.61110680616863677       -627.04985301883255        23949.318171457846     
   97.308945775533076      -0.62177349941922033       -613.79470463936207        24563.112876097210     
   102.58836507143658      -0.63285372149473806       -601.89410387625139        25165.006979973463     
   108.18454952509430      -0.64594983028776021       -590.50102492443000        25755.508004897893     
   114.11650504597148      -0.66990386887111164       -577.90325387544169        26333.411258773333     
   120.04846056684866      -0.69975217953763669       -566.68159534676022        26900.092854120092     
   125.98041608772584      -0.73413866574482145       -557.10809630770723        27457.200950427799     
   132.26828893985567      -0.75119967703466684       -547.95058701962068        28005.151537447418     
   138.93343416311328      -0.77049064336194439       -538.59773597981768        28543.749273427235     
   145.99848809976632      -0.79247471503357625       -529.21413274843383        29072.963406175670     
   153.48744527261857      -0.81788845043901925       -519.96540607172869        29592.928812247399     
   161.42573987584194      -0.84790337086610934       -511.05868838273335        30103.987500630134     
   169.84033215525872      -0.88443400875946621       -502.76786779896901        30606.755368429102     
   178.75979997144051      -0.93062255406028394       -495.55367101760282        31102.309039446704     
   188.21443585659321      -0.99163764971632229       -490.26286117939964        31592.571900626102     
   196.23196708720269       -1.0586865805876107       -488.59895750554494        32081.170858131649     
   204.73055019164875       -1.0976259018598935       -487.96474016049609        32569.135598292145     
   213.22913329609480       -1.1259074046758790       -487.61218889001987        33056.747787182168     
   221.72771640054086       -1.1441336677686611       -487.90976765049271        33544.657554832658     
   230.22629950498691       -1.1555471182901706       -489.43440776833125        34034.091962600993     
   238.72488260943297       -1.1634299602898637       -492.61088798147011        34526.702850582464     
   247.22346571387902       -1.1701045952692111       -497.58019891258863        35024.283049495054     
   255.72204881832508       -1.1767236769120644       -504.32639117311533        35528.609440668166     
   264.73054690903791       -1.1852104299653514       -512.83089161436033        36041.440332282524     
   274.27955488519348       -1.2095222457304853       -519.70948000053647        36561.149812283060     
   283.82856286134904       -1.2523870626212477       -524.05856146309554        37085.208373746158     
   293.37757083750461       -1.3022466220491711       -527.96962985523123        37613.178003601388     
   303.49951929222954       -1.3237419276521718       -530.70685815545801        38143.884861756844     
   313.62146774695447       -1.3481482446893984       -532.00820773784028        38675.893069494683     
   323.74341620167939       -1.3749087430034934       -532.26596391712781        39208.159033411808     
   334.47268156368784       -1.4061555465404385       -531.83575632469012        39739.994789736498     
   345.84570284741676       -1.4427203048614616       -531.07760221549893        40271.072391951995     
   357.90110540816943       -1.4860782055510653       -530.34140436422922        40801.413796316221     
   370.67983212256723       -1.5387827862069823       -529.94059632777578        41331.354392643996     
   384.22528243982890       -1.6051597891380591       -530.13000532857700        41861.484397972570     
   398.58345977612629       -1.6924239611561465       -531.19305606649812        42392.677454039069     
   413.80312775260154       -1.7383981247743492       -524.71769674079019        42917.395150779856     
   429.02279572907679       -1.7485830414761834       -514.01591659138842        43431.411067371242     
   444.24246370555204       -1.7418389220276187       -504.64697054075776        43936.058037912000     
   459.46213168202729       -1.7352611106405953       -500.41027193942284        44436.468309851422     
   475.59497973709102       -1.7810166358745294       -510.62384363998228        44947.092153491401     
   491.72782779215476       -1.8753015461468907       -532.80495202930058        45479.897105520700     
   502.05285054739556       -1.9352381922936992       -545.58075049819763        46025.477856018901     
   512.99737466795079       -1.9555331595607899       -549.87952507556201        46575.357381094465     
   523.94189878850602       -1.9835174052516946       -556.15659798327761        47131.513979077747     
   535.54309435629455       -2.0179051210225172       -563.79086632878045        47695.304845406528     
   547.84036165815041       -2.0567545602148050       -572.08572385307400        48267.390569259602     
   560.87546499811765       -2.0981478705859038       -580.38224115732510        48847.772810416929     
   574.69267453848295       -2.1403297073713916       -588.08580501401173        49435.858615430938     
   589.33891665127010       -2.1818435663571072       -594.66964899829861        50030.528264429238     
   604.86393329082455       -2.2217170740032453       -599.68407272476918        50630.212337154007     
   621.32045092875228       -2.2626705398056401       -600.83254576622744        51231.044882920236     
   637.77696856668001       -2.3037978539032680       -598.92983860903450        51829.974721529274     
   655.22087726288339       -2.3447233493528969       -600.83631552678503        52430.811037056061     
   673.71142048085892       -2.3797002956290223       -601.86379928450208        53032.674836340564     
   692.20196369883445       -2.4095942523719360       -601.05317479298571        53633.728011133549     
   711.80193950988848       -2.4369681596344770       -599.14609415836708        54232.874105291914     
   732.57791386960582       -2.4604874969328008       -596.11356650629170        54828.987671798204     
   753.35388822932316       -2.4794730463445949       -592.72255065905495        55421.710222457259     
   774.12986258904050       -2.4945533395789621       -589.03614863250868        56010.746371089765     
   794.90583694875784       -2.5067964260120936       -584.99287773353160        56595.739248823294     
   815.68181130847518       -2.5178020369737801       -580.66625107721893        57176.405499900517     
   837.70434412977556       -2.5330646794394545       -574.19191125730777        57750.597411157825     
   859.72687695107595       -2.5655596426697862       -563.58068049782639        58314.178091655653     
   877.34490320811619       -2.5993363793952731       -555.13976234559902        58869.317854001252     
   894.96292946515655       -2.6257346049681898       -553.74625845148705        59423.064112452739     
   913.63803729761923       -2.6528318964802886       -550.47783390859263        59973.541946361329     
   933.43365160002975       -2.6832505119858401       -546.16019412131186        60519.702140482637     
   954.41700276058486       -2.7121195505096387       -543.03394287774029        61062.736083360374     
   975.40035392113998       -2.7379728927534606       -539.49305948415815        61602.229142844531     
   997.64270615132841       -2.7613860314633545       -536.05311164215527        62138.282254486687     
   1021.2195995153281       -2.7788502545292868       -532.57452653385246        62670.856781020542     
   1044.7964928793278       -2.7906476076306208       -529.34628163520972        63200.203062655753     
   1068.3733862433276       -2.7993416956869255       -526.21622766752262        63726.419290323276     
   1093.3648932091673       -2.8077313204052503       -521.83309733917179        64248.252387662447     
   1119.8558905929574       -2.8338978953952063       -513.26423573994350        64761.516623402393     
   1146.3468879767474       -2.8784284413262626       -503.03261725486891        65264.549240657259     
   1172.8378853605375       -2.9293264232390137       -493.76202781560863        65758.311268472869     
   1200.9183425873550       -2.9638735532836686       -490.12135754242439        66248.432626015288     
   1228.9987998141726       -2.9990401818873247       -483.77149476522192        66732.204120780516     
   1257.0792570409901       -3.0361403592142744       -477.00778027752807        67209.211901058050     
   1286.8445417014166       -3.0773549702759504       -470.52802552358054        67679.739926581635     
   1318.3957434414688       -3.1207376995215821       -463.96933789772726        68143.709264479359     
   1351.8400172859240       -3.1651975783155004       -457.31989664160722        68601.029161120969     
   1387.2909475610466       -3.2052323326324377       -451.50780090679666        69052.536962027763     
   1424.8689336526766       -3.2398621011304081       -446.42061869512719        69498.957580722898     
   1462.4469197443066       -3.2673986852026533       -442.03629422097077        69940.993874943873     
   1500.0249058359366       -3.2899321798483649       -438.42481926873131        70379.418694212611     
   1537.6028919275666       -3.3092230626315065       -435.30939563829162        70814.728089850905     
   1577.4355571846943       -3.3352455026681778       -431.29286670833409        71246.020956559238     
   1617.2682224418220       -3.3655814770295898       -426.39718140025178        71672.418137959496     
   1659.4908476143773       -3.3926604307282586       -422.23060572689695        72094.648743686397     
   1701.7134727869327       -3.4160728573532113       -418.38041622982513        72513.029159916216     
   1746.4694554698415       -3.4395318700189690       -414.77024807778542        72927.799407993996     
   1793.9107971137248       -3.4605046049541315       -411.46878512208531        73339.268193116077     
   1841.3521387576081       -3.4774170838009093       -408.58514528808723        73747.853338404166     
   1888.7934804014915       -3.4924580736714894       -406.07219137785853        74153.925529782020     
   1939.0813025440077       -3.5184522422722759       -402.44688243608704        74556.372412218101     
   1989.3691246865239       -3.5542973363938621       -397.08218474494271        74953.454596963042     
   2039.6569468290402       -3.5817299668619293       -392.26444741542434        75345.719044378464     
   2079.8872045430530       -3.6022470928751966       -388.03594188552154        75733.754986263986     
   2122.5312777199069       -3.6281610901456833       -384.15346997337076        76117.908456237361     
   2165.1753508967608       -3.6549461410216502       -379.84996284935806        76497.758419086720     
   2207.8194240736148       -3.6822201616856955       -375.45908541958693        76873.217504506305     
   2253.0221416410800       -3.7103982507862829       -371.14549843096535        77244.363002937273     
   2298.2248592085452       -3.7353522483571071       -366.99639400366902        77611.359396940941     
   2346.1397398300583       -3.7594564372497628       -363.23894209381774        77974.598339034754     
   2394.0546204515713       -3.7800156050918146       -359.75553068651448        78334.353869721264     
   2441.9695010730843       -3.7983293979547792       -356.69138582794955        78691.045255549208     
   2492.7592745318880       -3.8179493839309702       -353.70835901884232        79044.753614568050     
   2543.5490479906916       -3.8382183319103182       -350.46529159031110        79395.218906158363     
   2594.3388214494953       -3.8562542267785984       -347.42864090551637        79742.647547063883     
   2645.1285949082990       -3.8724753697567040       -344.70795000141385        80087.355497065291     
   2698.9657547746310       -3.8887758296568640       -342.17498469766201        80429.530481762951     
   2756.0331442329430       -3.9045649613261384       -339.68031138442046        80769.210793147373     
   2816.5245770587535       -3.9196992612479171       -337.26975290690348        81106.480546054270     
   2880.6454958541126       -3.9343901522760634       -334.93558259389380        81441.416128648169     
   2948.6136697771935       -3.9546440872298110       -332.19060298636680        81773.606731634529     
   3016.5818437002745       -3.9791191909643691       -328.58253751731905        82102.189269151844     
   3084.5500176233554       -4.0004613863520460       -324.87125263037746        82427.060521782216     
   3152.5181915464364       -4.0220895056278065       -321.40060599785727        82748.461127780072     
   3220.4863654695173       -4.0448650200716978       -317.81575139966424        83066.276879179743     
   3288.4545393925982       -4.0683489789844636       -314.08012663200338        83380.357005811748     
   3356.4227133156792       -4.0907778477518955       -310.36700024985146        83690.724006061602     
   3424.3908872387601       -4.1114747566029335       -306.87655843400375        83997.600564495602     
   3492.3590611618411       -4.1300011036795361       -303.69873834211927        84301.299302837724     
   3560.3272350849220       -4.1472542787771065       -300.80255072297206        84602.101853560700     
   3628.2954090080029       -4.1643448843841515       -298.02662268612829        84900.128476246828     
   3682.6699481464675       -4.1760979601040304       -295.44733600165756        85195.575812248484     
   3740.3069596332398       -4.1899603633789404       -293.42137491176243        85488.997187160247     
   3797.9439711200121       -4.2018512383826678       -291.35791965576459        85780.355106816016     
   3859.0392032959908       -4.2138376755233322       -289.48825179766146        86069.843358613682     
   3923.8001494025284       -4.2253861648327939       -287.64295191549485        86357.486310529173     
   3992.4467522754580       -4.2367532332220561       -285.84182864331029        86643.328139172489     
   4065.2121513207635       -4.2492079227558044       -283.97628369309473        86927.304422865578     
   4137.9775503660694       -4.2627120418915698       -281.88930296997438        87209.193725835547     
   4210.7429494113749       -4.2778144632523283       -279.59447210259287        87488.788197938135     
   4283.5083484566803       -4.2919057773076972       -277.22462476601993        87766.012822704157     
   4356.2737475019858       -4.3058570983368849       -274.95764024035958        88040.970462944519     
   4429.0391465472912       -4.3200141347828547       -272.68906441045971        88313.659527354976     
   4506.1704695353155       -4.3362457749553469       -270.32068191969734        88583.980209274669     
   4583.3017925233398       -4.3515793189348040       -267.75697439405394        88851.737183668723     
   4660.4331155113641       -4.3664465570581479       -265.31008534386945        89117.047269012590     
   4737.5644384993884       -4.3803390846451622       -262.97174113274389        89380.019010145334     
   4819.3236408666935       -4.3949578951738957       -260.73374952472574        89640.752759670053     
   4901.0828432339986       -4.4085480345319530       -258.43496613364687        89899.187725803698     
