 #              _____________________  _______________________             #
 #              ___  __ \__  __ \_  / / /_  /___  ____/_  ___/             #
 #              __  / / /_  /_/ /  / / /_  __/_  __/  _____ \              #
 #              _  /_/ /_  _, _// /_/ / / /_ _  /___  ____/ /              #
 #              /_____/ /_/ |_| \____/  \__/ /_____/  /____/               #
 #                                                                         #
  
 #        time                      T            heat flux [W.L-2]   in    x              directions   cumulative flux
 #-----------------------------------------------------------------------------------------------

   0.0000000000000000        20.000000000000000       -0.0000000000000000        0.0000000000000000     
   1.0000000000000000        20.000000000000004       -6.7785776991513598E-012   6.7785776991513598E-012
   1.9540000000000002        20.000000000000000       -5.1969095693494387E-011   5.8747673392645743E-011
   2.8641160000000001        19.999999999999982       -2.2708235292158402E-010   2.8583002631422977E-010
   3.8288389600000006        19.999999999999897       -9.3544372248312140E-010   1.2212737487973512E-009
   4.8514452976000007        19.999999999999549       -3.5011353816149389E-009   4.7224091304122901E-009
   5.9354080154560007        19.999999999998298       -1.1897533624997805E-008   1.6619942755410095E-008
   7.0844084963833609        19.999999999994177       -3.7098025984864250E-008   5.3717968740274345E-008
   8.3023490061663630        19.999999999981597       -1.0735459455032679E-007   1.6107256329060113E-007
   9.5933659465363448        19.999999999945608       -2.9113652291123326E-007   4.5220908620183442E-007
   10.961843903328527        19.999999999848338       -7.4600281166408502E-007   1.1982118978659193E-006
   12.412430537528239        19.999999999598334       -1.8183681555314003E-006   3.0165800533973199E-006
   13.950052369779934        19.999999998983906       -4.2397100061050612E-006   7.2562900595023811E-006
   15.579931511966731        19.999999997533294       -9.4993847030721242E-006   1.6755674762574504E-005
   17.307603402684734        19.999999994230805       -2.0531169759211110E-005   3.7286844521785615E-005
   19.138935606845820        19.999999986957956       -4.2941030462580932E-005   8.0227874984366553E-005
   21.080147743256571        19.999999971423417       -8.7142871592040227E-005   1.6737074657640678E-004
   23.137832607851966        19.999999939168813       -1.7197753777227153E-004   3.3934828434867834E-004
   25.318978564323086        19.999999873944823       -3.3069182157302487E-004   6.7004010592170327E-004
   27.630993278182473        19.999999745284644       -6.2057727540215852E-004   1.2906173813238618E-003
   30.081728874873424        19.999999497371952       -1.1381404218225456E-003   2.4287578031464072E-003
   32.679508607365833        19.999999030194111       -2.0424202853233952E-003   4.4711780884698019E-003
   35.433155123807786        19.999998168339847       -3.5899961767779831E-003   8.0611742652477846E-003
   38.352020431236255        19.999996610465534       -6.1863250525439773E-003   1.4247499317791762E-002
   41.446017657110431        19.999993849214270       -1.0459263154217616E-002   2.4706762472009376E-002
   44.725654716537058        19.999989047023014       -1.7361858612153790E-002   4.2068621084163163E-002
   48.202069999529286        19.999980847623789       -2.8312583788975727E-002   7.0381204873138897E-002
   51.887070199501046        19.999967096046124       -4.5381870036900598E-002  0.11576307491003950     
   55.793170411471110        19.999944431622833       -7.1533807204126096E-002  0.18729688211416559     
   59.933636636159378        19.999907709185038      -0.11093082139490050       0.29822770350906608     
   64.322530834328944        19.999849193915804      -0.16930668479125946       0.46753438830032557     
   68.974758684388689        19.999757466210269      -0.25440903137892795       0.72194341967925357     
   73.906120205452012        19.999615965774368      -0.37650647360177164        1.0984498932810252     
   79.133363417779137        19.999401100879663      -0.54894747816033207        1.6473973714413572     
   84.674241222845893        19.999079851239266      -0.78874870340822956        2.4361460748495869     
   90.547571696216650        19.998606803484630       -1.1171802165250642        3.5533262913746508     
   96.773301997989648        19.997920578533066       -1.5603049396990589        5.1136312310737093     
   103.37257611786903        19.996939641399166       -2.1494211547530946        7.2630523858268035     
   110.36780668494117        19.995557526291222       -2.9213514089288739        10.184403794755678     
   117.78275108603765        19.993637561778680       -3.9185201399200582        14.102923934675736     
   125.64259215119992        19.991007239404723       -5.1887669021758578        19.291690836851593     
   133.97402368027193        19.987452429717536       -6.7848528053633474        26.076543642214940     
   142.80534110108826        19.982711706374857       -8.7636344997303137        34.840178141945252     
   152.16653756715357        19.976471085123524       -11.184901749577095        46.025079891522346     
   162.08940582118279        19.968359513616218       -14.109899510759712        60.134979402282056     
   172.60764617045376        19.957945454873332       -17.599581043780923        77.734560446062972     
   183.75698094068099        19.944734888423085       -21.712662225319885        99.447222671382860     
   195.57527579712186        19.928171008137920       -26.503566236240712        125.95078890762358     
   208.10266834494917        19.907635826864833       -32.020360059545304        157.97114896716889     
   221.38170444564611        19.882453810216866       -38.302788380457663        196.27393734762654     
   235.45748271238489        19.851897562567963       -45.380506196285772        241.65444354391232     
   250.37780767512800        19.815195485737576       -53.271599370144912        294.92604291405723     
   266.19335213563568        19.771541233466905       -61.981464005301802        356.90750691935904     
   282.95782926377382        19.720104699965571       -71.502092955970042        428.40959987532909     
   300.72817501960026        19.660044214121374       -81.811793348320109        510.22139322364922     
   319.56474152077629        19.590519565730649       -92.875334900971467        603.09672812462065     
   339.53150201202288        19.510704977453258       -104.64460429538546        707.74133242000607     
   359.49826250326947        19.425255868468220       -116.36477717821496        824.10610959822100     
   380.66302862399084        19.328924192908506       -128.64672279233884        952.75283239055989     
   399.71131813264009        19.237978538902549       -139.53333044911545        1092.2861628396754     
   418.75960764128934        19.143190162956071       -150.20998409037998        1242.4961469300554     
   437.80789714993858        19.044951565124002       -160.64060325251020        1403.1367501825655     
   456.85618665858783        18.943642960437487       -170.79455820639288        1573.9313083889583     
   477.04737353775602        18.833241855855864       -181.21593911911464        1755.1472475080730     
   497.23856041692420        18.720248710172640       -191.26792684184480        1946.4151743499178     
   517.42974729609239        18.605069559596259       -200.92722354712939        2147.3423978970472     
   537.62093417526057        18.488092398594411       -210.17574010677484        2357.5181380038221     
   557.81212105442876        18.369683685942462       -219.00164832188543        2576.5197863257076     
   579.21477914634704        18.242965751572747       -227.87598777016353        2804.3957740958713     
   601.90159672378047        18.107728432062512       -236.74367434383026        3041.1394484397015     
   625.94962335585990        17.963806076321323       -245.55160801366350        3286.6910564533650     
   651.44053158586405        17.811062541265340       -254.25762711609099        3540.9486835694561     
   674.38234899286783        17.673715152880643       -261.61522547097155        3802.5639090404275     
   695.02998465917119        17.550366036473186       -267.87493426619528        4070.4388433066229     
   713.61285675884426        17.439668896162463       -273.23164094375221        4343.6704842503750     
   732.19572885851733        17.329381884394714       -278.32431216007689        4621.9947964104522     
   750.77860095819040        17.219592242947421       -283.16224247023393        4905.1570388806858     
   769.36147305786346        17.110384478221839       -287.75172214936435        5192.9087610300503     
   789.05931748351691        16.995376136918836       -292.34316483483309        5485.2519258648836     
   808.75716190917035        16.881213913116714       -296.66645619366909        5781.9183820585531     
   828.45500633482379        16.767985456332909       -300.72825592791793        6082.6466379864714     
   848.15285076047724        16.655767002065531       -304.53852842396270        6387.1851664104342     
   867.85069518613068        16.544617265937731       -308.11232687992151        6695.2974932903562     
   887.54853961178412        16.434573196756439       -311.46960110934816        7006.7670943997045     
   908.42825470297680        16.319183181181337       -314.81267715345183        7321.5797715531562     
   930.56075269964094        16.198268132587934       -318.14684242949500        7639.7266139826515     
   954.02120057610500        16.071624121909764       -321.48163109511137        7961.2082450777625     
   978.88927532515686        15.939016736095088       -324.83078224025650        8286.0390273180183     
   1005.2494345591518        15.800195361119737       -328.20123572899547        8614.2402630470133     
   1028.9735778697473        15.676614444662786       -331.09780537258922        8945.3380684196018     
   1052.6977211803428        15.554363327503458       -333.85721779504229        9279.1952862146445     
   1077.8453130895741        15.426271461437222       -336.62086940114284        9615.8161556157866     
   1102.9929049988054        15.299699023225021       -339.21424042433802        9955.0303960401252     
   1128.1404969080368        15.174686531920802       -341.63096979559293        10296.661365835718     
   1153.2880888172681        15.051271579529148       -343.87292301931387        10640.534288855031     
   1179.9445362410531        14.922270749053975       -346.06681017537494        10986.601099030406     
   1206.6009836648382        14.795089400573840       -348.09590010414894        11334.696999134554     
   1233.2574310886232        14.669715100236459       -349.97528808326257        11684.672287217816     
   1261.5132653578355        14.538830063737787       -351.81040514316913        12036.482692360985     
   1289.7690996270478        14.409941937406757       -353.49384950428106        12389.976541865266     
   1318.0249338962601        14.283031748536320       -355.03257741844811        12745.009119283714     
   1346.2807681654724        14.158053674755385       -356.44587538858769        13101.454994672302     
   1376.2319524908373        14.027658738331731       -357.83057935955344        13459.285574031856     
   1407.9802078757241        13.891643084963622       -359.20330545330484        13818.488879485159     
   1425.2106210382099        13.818449644098095       -359.92549659017476        14178.414376075334     
   1443.4748589904448        13.741536408514131       -360.67102081147050        14539.085396886805     
   1461.7390969426797        13.665268018409666       -361.39878187054779        14900.484178757353     
   1480.0033348949146        13.589625099989188       -362.10710033524197        15262.591279092596     
   1498.2675728471495        13.514598956627385       -362.79067779257906        15625.381956885174     
   1516.5318107993844        13.440192447783367       -363.44178065844648        15988.823737543620     
   1534.7960487516193        13.366418988165954       -364.05164108197403        16352.875378625595     
   1553.0602867038542        13.293300448067313       -364.61159317636583        16717.486971801962     
   1572.4203789332232        13.216563248330838       -365.14039238568768        17082.627364187651     
   1592.9420766963544        13.136126940803916       -365.62074329200311        17448.248107479652     
   1614.6950763252735        13.051926277877635       -366.03643574019810        17814.284543219852     
   1636.4480759541925        12.968823235147632       -366.35978142960448        18180.644324649456     
   1658.2010755831116        12.886836051707185       -366.59863347791162        18547.242958127368     
   1679.9540752120306        12.805961252885457       -366.76664912606140        18914.009607253429     
   1703.0122548186848        12.721449006834714       -366.88646811501280        19280.896075368441     
   1727.4539252017382        12.633158901080440       -366.97446249475934        19647.870537863200     
   1753.3620958077749        12.540908237721638       -367.05412611154031        20014.924663974740     
   1780.8247566501739        12.444460670319948       -367.15650312118220        20382.081167095923     
   1809.9351771431166        12.343506226795014       -367.32481804035228        20749.405985136276     
   1840.7922228656359        12.237708360045792       -367.58197454748966        21116.987959683767     
   1871.6492685881553        12.132986566529956       -367.89741986845991        21484.885379552226     
   1902.5063143106747        12.029309095737730       -368.22850792078737        21853.113887473013     
   1935.2147827765452        11.920652344874579       -368.54271070658638        22221.656598179601     
   1967.9232512424157        11.813355026340378       -368.77794191828821        22590.434540097889     
   2000.6317197082863        11.707530315554175       -368.91624653627019        22959.350786634161     
   2033.3401881741568        11.603232727087732       -368.97065897897477        23328.321445613135     
   2066.0486566400273        11.500465421523405       -368.96096613165656        23697.282411744793     
   2098.7571251058980        11.399200160337077       -368.90384343975370        24066.186255184548     
   2131.4655935717687        11.299401744346483       -368.80726467124055        24434.993519855787     
   2166.1365701455916        11.195220931241977       -368.66250839487799        24803.656028250665     
   2200.8075467194144        11.092607296718890       -368.47541847369655        25172.131446724361     
   2235.4785232932372        10.991491048557359       -368.25991500554909        25540.391361729911     
   2270.1494998670601        10.891716246289874       -368.06154490528201        25908.452906635193     
   2306.9007350353122        10.787265309373623       -367.89697167593931        26276.349878311132     
   2331.8327729734547        10.716952904953878       -367.81058985412807        26644.160468165261     
   2358.2607331878853        10.642995124792670       -367.73978679292014        27011.900254958182     
   2384.6886934023159        10.569607863926469       -367.67277383690634        27379.573028795086     
   2411.1166536167466        10.496828271492745       -367.58650737332914        27747.159536168416     
   2437.5446138311772        10.424720973411414       -367.45909188525081        28114.618628053668     
   2463.9725740456079        10.353364566317051       -367.27304925907248        28481.891677312738     
   2490.4005342600385        10.282839848610259       -367.01659717895171        28848.908274491689     
   2518.4141720873349        10.209103256244386       -366.65899081814030        29215.567265309830     
   2548.1086281842695        10.132154446431988       -366.18871024243288        29581.755975552263     
   2577.8030842812041        10.056447454123461       -365.64040488934626        29947.396380441609     
   2607.4975403781386        9.9819470305807059       -365.04438628003641        30312.440766721644     
   2637.1919964750732        9.9085144987377696       -364.46040998147447        30676.901176703119     
   2668.6681199378236        9.8316451243587171       -363.90915609525769        31040.810332798377     
   2702.0328108083390        9.7509839974024874       -363.43134668222314        31404.241679480601     
   2737.3993831310854        9.6661244290014032       -363.06105577281284        31767.302735253415     
   2774.8879497931966        9.5767544588243734       -362.77175731938178        32130.074492572796     
   2812.3765164553079        9.4879917318610509       -362.52111157205576        32492.595604144852     
   2849.8650831174191        9.3999800341964619       -362.24799729665398        32854.843601441506     
   2887.3536497795303        9.3129156964949260       -361.90628380673223        33216.749885248239     
   2927.0915304413684        9.2219306077845467       -361.43382228800141        33578.183707536242     
   2969.2136839429168        9.1271286929632822       -360.81370860687178        33938.997416143116     
   3011.3358374444651        9.0340505002267548       -360.09923680392501        34299.096652947039     
   3053.4579909460135        8.9426095440063946       -359.35309474506067        34658.449747692102     
   3095.5801444475619        8.8525853390693250       -358.64431213772542        35017.094059829826     
   3137.7022979491103        8.7637921197382589       -357.98258926842897        35375.076649098257     
   3182.3517806607515        8.6709489655516521       -357.30085790348505        35732.377507001744     
   3227.0012633723927        8.5793380543713376       -356.61620260462701        36088.993709606373     
   3271.6507460840339        8.4888190631735689       -355.95865782993707        36444.952367436308     
   3316.3002287956751        8.3990111791776734       -355.43556301037182        36800.387930446683     
   3363.6286804700148        8.3043979162660051       -354.99866771845041        37155.386598165132     
   3413.7968392448147        8.2050776898117395       -354.49997668186921        37509.886574847005     
   3463.9649980196145        8.1072580215500452       -353.84554099162420        37863.732115838633     
   3514.1331567944144        8.0114121367127904       -352.99326872696224        38216.725384565594     
   3564.3013155692142        7.9178256421163207       -351.95811575127919        38568.683500316874     
   3617.4795638705023        7.8212408194750687       -350.70356013898657        38919.387060455862     
   3670.6578121717903        7.7270262133317162       -349.39771680916772        39268.784777265028     
   3723.8360604730783        7.6340955716097092       -348.35378630404438        39617.138563569075     
   3777.0143087743663        7.5416451765914587       -347.59480933271493        39964.733372901792     
   3833.3832519737316        7.4436850180742198       -347.05161583433397        40311.784988736123     
   3893.1343317650585        7.3405304308850656       -346.44648985290564        40658.231478589027     
   3952.8854115563854        7.2389049089408397       -345.66192134935034        41003.893399938373     
   4012.6364913477123        7.1394477902128930       -344.66800785392974        41348.561407792302     
   4072.3875711390392        7.0424831076271595       -343.49889917384519        41692.060306966145     
   4135.7237157178461        6.9425015047273604       -342.14358921010916        42034.203896176252     
   4199.0598602966529        6.8448026984026757       -340.84048339446821        42375.044379570718     
