 #              _____________________  _______________________             #
 #              ___  __ \__  __ \_  / / /_  /___  ____/_  ___/             #
 #              __  / / /_  /_/ /  / / /_  __/_  __/  _____ \              #
 #              _  /_/ /_  _, _// /_/ / / /_ _  /___  ____/ /              #
 #              /_____/ /_/ |_| \____/  \__/ /_____/  /____/               #
 #                                                                         #
  
 #        time                      T            heat flux [W.L-2]   in    x              directions   cumulative flux
 #-----------------------------------------------------------------------------------------------

   0.0000000000000000          278.10449999999997           9.4114761705691716          0.0000000000000000     
   1.0000000000000000          278.10412069478252           9.5790654493323366          0.0000000000000000     
   2.0060000000000002          278.10376103622787           9.7327921840044880          9.7327921840044880     
   3.0180360000000004          278.10341948403442           9.8738537268838442          19.665889033249634     
   4.0361442160000003          278.10309462301507           10.003344427278007          29.789633714054361     
   5.0603610812960005          278.10278515297199           10.122264091841592          40.095193950480066     
   6.0907232477837763          278.10248987933841           10.231525803202132          50.574495235830895     
   7.1272675872704792          278.10220770453554           10.331963139607257          61.220159160428473     
   8.1700311927941023          278.10193761999540           10.424336836979107          72.025446501701879     
   9.2190513799508675          278.10167869880235           10.509340932969447          82.984204744642099     
   10.274365688230573          278.10143008891117           10.587608428395956          94.090819719740566     
   11.336011882359955          278.10119100690071           10.659716500513694          105.34017106493793     
   12.404027953654115          278.10096073222365           10.726191300611353          116.72759123673568     
   13.478452121376039          278.10073860191801           10.787512365308336          128.24882781216945     
   14.559322834104295          278.10052400574517           10.844116670706438          139.90000884077267     
   15.646678771108920          278.10031638172438           10.896402354437715          151.67761101978761     
   16.740558843735574          278.10011521203279           10.944732131770232          163.57843048219326     
   17.841002196797987          278.09992001924496           10.989436427515674          175.59955599965008     
   18.948048209978776          278.09973036288523           11.030816245984179          187.73834441639625     
   20.061736499238648          278.09954583626802           11.069145798996457          199.99239814249214     
   21.182106918234080          278.09936606360679           11.104674910327843          212.35954454616217     
   22.309199559743483          278.09919069736634           11.137631214653490          224.83781709674011     
   23.443054757101944          278.09901941584371           11.168222166087068          237.42543811887907     
   24.583713085644554          278.09885192095567           11.196636873361546          250.12080303067546     
   25.731215364158420          278.09868793621843           11.223047773025048          262.92246594460806     
   26.885602656343369          278.09852720490397           11.247612156061352          275.82912652152874     
   28.046916272281429          278.09836948835681           11.270473558704801          288.83961797460404     
   29.215197769915118          278.09821456446002           11.291763028792866          301.95289612788719     
   30.390488956534607          278.09806222623627           11.311600278437298          315.16802944181359     
   31.572831890273815          278.09791228057412           11.330094732167511          328.48418992409398     
   32.762268881615455          278.09776454706741           11.347346479273789          341.90064485055382     
   33.958842494905149          278.09761885695917           11.363447139385704          355.41674922729453     
   35.162595549874581          278.09747505218098           11.378480647504958          369.03193892942636     
   36.373571123173825          278.09733298447816           11.392523966748385          382.74572445821218     
   37.591812549912866          278.09719251461513           11.405647734210676          396.55768526199722     
   38.817363425212342          278.09705351165280           11.417916846182520          410.46746457107838     
   40.050267605763615          278.09691585229058           11.429390988751436          424.47476470148268     
   41.290569211398200          278.09677942027037           11.440125117177407          438.57934278448033     
   42.538312626666588          278.09664410583252           11.450169890729317          452.78100688474063     
   43.793542502426590          278.09650980522281           11.459572065211580          467.07961247090196     
   45.056303757441150          278.09637642024387           11.468374847886587          481.47505920638378     
   46.326641579985797          278.09624385784718           11.476618218676949          495.96728803152325     
   47.604601429465710          278.09611202976214           11.484339220014192          510.55627850964015     
   48.890229038042506          278.09598085215805           11.491572218834513          525.24204641270944     
   50.183570412270761          278.09585024533726           11.498349143055050          540.02464152407629     
   51.484671834744383          278.09572013345485           11.504699695222705          554.90414563797901     
   52.793579865752847          278.09559044426396           11.510651545129910          569.88067073694572     
   54.110341344947365          278.09546110888209           11.516230504625772          584.95435733139504     
   55.435003393017048          278.09533206157965           11.521460683769934          600.12537294383742     
   56.767613413375152          278.09520323958475           11.526364633846075          615.39391072650596     
   58.108219093855404          278.09507458290562           11.530963475133344          630.76018819785190     
   59.456868408418536          278.09494603416789           11.535277012771108          646.22444608708611     
   60.813609618869044          278.09481753846484           11.539323841708795          661.78694727672871     
   62.178491276582257          278.09468904321972           11.543121441576895          677.44797583375100     
   63.551562224241749          278.09456049805988           11.546686262051642          693.20783612019443     
   64.932871597587194          278.09443185469968           11.550033800749803          709.06685197648915     
   66.322468827172713          278.09430306683265           11.553178673770885          725.02536597050369     
   67.720403640135743          278.09417409003191           11.556134679439069          741.08373870576941     
   69.126726061976555          278.09404488165791           11.558914856040321          757.24234818310379     
   70.541486418348413          278.09391540077195           11.561531535028811          773.50158921163450     
   71.964735336858510          278.09378560805658           11.563996388769223          789.86187286369250     
   73.396523748879659          278.09365546574065           11.566320474315233          806.32362596990276     
   74.836902891372944          278.09352493752971           11.568514273476543          822.88729065096777     
   76.285924308721178          278.09339398854047           11.570587729253088          839.55332388257261     
   77.743639854573502          278.09326258523942           11.572550279348519          856.32219709068795     
   79.210101693700949          278.09313069538501           11.574410886873531          873.19439577456592     
   80.685362303863158          278.09299828797333           11.576178068379333          890.17041915478819     
   82.169474477686336          278.09286533318635           11.577859920217898          907.25077984506140     
   83.662491324552448          278.09273180234374           11.579464142087978          924.43600354468310     
   85.164466272499766          278.09259766785652           11.580998059309811          941.72662875075650     
   86.675453070134765          278.09246290318339           11.582468643388005          959.12320648851062     
   88.195505788555579          278.09232748278879           11.583882531042008          976.62630005826975     
   89.724678823286908          278.09219138210392           11.585246041702295          994.23648479753319     
   91.263026896226634          278.09205457748840           11.586565193948752          1011.9543478572763     
   92.810605057603993          278.09191704619474           11.587845721001663          1029.7804879917019     
   94.367468687949611          278.09177876633350           11.589093084901791          1047.7155153600652     
   95.933673500077305          278.09163971684092           11.590312489866196          1065.7600513398786     
   97.509275541077770          278.09149987744684           11.591508894991158          1083.9147283510347     
   99.094331194324241          278.09135922864488           11.592687025796341          1102.1801896895590     
   100.68889718149019          278.09121775166352           11.593851385474274          1120.5570893710044     
   102.29303056457913          278.09107542843833           11.595006265248756          1139.0460919825462     
   103.90678874796660          278.09093224158528           11.596155754042449          1157.6478725431045     
   105.53022948045439          278.09078817437540           11.597303747804185          1176.3631163713537     
   107.16341085733713          278.09064321071025           11.598453958068484          1195.1925189607664     
   108.80639132248115          278.09049733509801           11.599609920747376          1214.1367858624351     
   110.45922967041604          278.09035053263136           11.600775003088003          1233.1966325730398     
   112.12198504843853          278.09020278896560           11.601952411521058          1252.3727844297175     
   113.79471695872917          278.09005409029726           11.603145198546567          1271.6659765105767     
   115.47748526048154          278.08990442334488           11.604356269434795          1291.0769535408415     
   117.17035017204444          278.08975377532920           11.605588388081703          1310.6064698034909     
   118.87337227307670          278.08960213395477           11.606844183368617          1330.2552890554934     
   120.58661250671516          278.08944948739173           11.608126154629376          1350.0241844483980     
   122.31013218175545          278.08929582425964           11.609436676809977          1369.9139384529869     
   124.04399297484598          278.08914113360987           11.610778005764296          1389.9253427884469     
   125.78825693269505          278.08898540491072           11.612152282800665          1410.0591983549916     
   127.54298647429123          278.08882862803165           11.613561539520825          1430.3163151706401     
   129.30824439313696          278.08867079322926           11.615007701757689          1450.6975123107813     
   131.08409385949579          278.08851189113261           11.616492594023233          1471.2036178515939     
   132.87059842265276          278.08835191273045           11.618017943171152          1491.8354688161216     
   134.66782201318867          278.08819084935783           11.619585382167452          1512.5939111233558     
   136.47582894526781          278.08802869268379           11.621196453633200          1533.4797995400777     
   138.29468391893943          278.08786543469967           11.622852613007222          1554.4939976349287     
   140.12445202245306          278.08770106770754           11.624555231795041          1575.6373777349995     
   141.96519873458777          278.08753558430902           11.626305600661455          1596.9108208847917     
   143.81698992699529          278.08736897739539           11.628104932094361          1618.3152168069018     
   145.67989186655726          278.08720124013678           11.629954363175699          1639.8514638647321     
   147.55397121775661          278.08703236597296           11.631854958199602          1661.5204690270657     
   149.43929504506315          278.08686234860369           11.633807711054196          1683.3231478341761     
   151.33593081533354          278.08669118198014           11.635813547566157          1705.2604243654989     
   153.24394640022555          278.08651886029617           11.637873327541392          1727.3332312083894     
   155.16341007862690          278.08634537798008           11.639987847154499          1749.5425094287136     
   157.09439053909867          278.08617072968696           11.642157840645627          1771.8892085420484     
   159.03695688233327          278.08599491029054           11.644383982400228          1794.3742864862936     
   160.99117862362726          278.08581791487677           11.646666888700850          1816.9987095951487     
   162.95712569536903          278.08563973873629           11.649007119328813          1839.7634525722297     
   164.93486844954126          278.08546037735766           11.651405179380454          1862.6694984663095     
   166.92447766023849          278.08527982642147           11.653861520615379          1885.7178386468329     
   168.92602452619994          278.08509808179360           11.656376543141006          1908.9094727804215     
   170.93958067335714          278.08491513951964           11.658950596744940          1932.2454088077354     
   172.96521815739729          278.08473099581914           11.661583982226487          1955.7266629207375     
   175.00300946634167          278.08454564708018           11.664276952609141          1979.3542595401680     
   177.05302752313972          278.08435908985376           11.667029714604782          2003.1292312937856     
   179.11534568827855          278.08417132084912           11.669842429709686          2027.0526189946784     
   181.19003776240822          278.08398233692890           11.672715215152737          2051.1254716193803     
   183.27717798898269          278.08379213510437           11.675648145180670          2075.3488462865134     
   185.37684105691659          278.08360071253054           11.678641252214936          2099.7238082357430     
   187.48910210325809          278.08340806650239           11.681694527517093          2124.2514308060563     
   189.61403671587763          278.08321419445031           11.684807922566952          2148.9327954148771     
   191.75172093617289          278.08301909393612           11.687981349655468          2173.7689915364117     
   193.90223126178992          278.08282276264930           11.691214683079599          2198.7611166805154     
   196.06564464936065          278.08262519840326           11.694507759721764          2223.9102763708056     
   198.24203851725682          278.08242639913146           11.697860380145888          2249.2175841231465     
   200.43149074836035          278.08222636288417           11.701272309363519          2274.6841614238283     
   202.63407969285052          278.08202508782489           11.704743277631053          2300.3111377075320     
   204.84988417100763          278.08182257222717           11.708272981163416          2326.0996503349156     
   207.07898347603367          278.08161881447126           11.711861083024209          2352.0508445702344     
   209.32145737688987          278.08141381304137           11.715507213657101          2378.1658735582250     
   211.57738612115119          278.08120756652249           11.719210971897592          2404.4458983013328     
   213.84685043787809          278.08100007359735           11.722971925544043          2430.8920876363363     
   216.12993154050537          278.08079133304420           11.726789611856903          2457.5056182102094     
   218.42671112974841          278.08058134373329           11.730663538553690          2484.2876744563600     
   220.73727139652689          278.08037010462482           11.734593184416404          2511.2394485703981     
   223.06169502490604          278.08015761476605           11.738577999870039          2538.3621404853779     
   225.40006519505548          278.07994387328910           11.742617407563946          2565.6569578465360     
   227.75246558622581          278.07972887940844           11.746710803041676          2593.1251159857406     
   230.11898037974316          278.07951263241824           11.750857555655662          2620.7678378962519     
   232.49969426202162          278.07929513169040           11.755057008787977          2648.5863542061884     
   234.89469242759375          278.07907637667250           11.759308480510063          2676.5819031517335     
   237.30406058215931          278.07885636688513           11.763611264569329          2704.7557305508808     
   239.72788494565228          278.07863510192010           11.767964630523620          2733.1090897757185     
   242.16625225532619          278.07841258143827           11.772367824614735          2761.6432417250203     
   244.61924976885814          278.07818880516754           11.776820070296411          2790.3594547963426     
   247.08696526747130          278.07796377290083           11.781320568768329          2819.2590048576540     
   249.56948705907612          278.07773748449432           11.785868499630011          2848.3431752188076     
   252.06690398143058          278.07750993986576           11.790463021169909          2877.6132566019728     
   254.57930540531916          278.07728113899191           11.795103271474421          2907.0705471130714     
   257.10678123775108          278.07705108190765           11.799788368364931          2936.7163522113356     
   259.64942192517759          278.07681976870356           11.804517410542211          2966.5519846800030     
   262.20731845672867          278.07658719952451           11.809289477708452          2996.5787645956220     
   264.78056236746903          278.07635337456816           11.814103631309761          3026.7980192975342     
   267.36924574167386          278.07611829408290           11.818958915044833          3057.2110833569641     
   269.97346121612389          278.07588195836672           11.823854355415861          3087.8192985458481     
   272.59330198342064          278.07564436776522           11.828788962257409          3118.6240138053627     
   275.22886179532117          278.07540552267056           11.833761729192821          3149.6265852139782     
   277.88023496609310          278.07516542351965           11.838771634233979          3180.8283759554333     
   280.54751637588964          278.07492407079275           11.843817640474965          3212.2307562869041     
   283.23080147414498          278.07468146501208           11.848898696281481          3243.8351035060582     
   285.93018628298984          278.07443760674050           11.854013736065578          3275.6428019185569     
   288.64576740068776          278.07419249658028           11.859161680643121          3307.6552428049199     
   291.37764200509190          278.07394613517113           11.864341437984761          3339.8738243878324     
   294.12590785712246          278.07369852318988           11.869551903381018          3372.2999517983358     
   296.89066330426522          278.07344966134849           11.874791960160266          3404.9350370424113     
