 #              _____________________  _______________________             #
 #              ___  __ \__  __ \_  / / /_  /___  ____/_  ___/             #
 #              __  / / /_  /_/ /  / / /_  __/_  __/  _____ \              #
 #              _  /_/ /_  _, _// /_/ / / /_ _  /___  ____/ /              #
 #              /_____/ /_/ |_| \____/  \__/ /_____/  /____/               #
 #                                                                         #
  
 #        time                      T            heat flux [W.L-2]   in    x              directions   cumulative flux
 #-----------------------------------------------------------------------------------------------

   0.0000000000000000          277.73919999999998          -9.3790290135127812          0.0000000000000000     
   1.0000000000000000          277.47782864699383          -117.37609594056072          0.0000000000000000     
   2.0060000000000002          277.23654003056805          -212.94605714006033          212.94605714006033     
   3.0180360000000004          277.01348239522520          -297.44563773529529          512.17636870176739     
   4.0361442160000003          276.80697322331861          -372.08317745954452          888.73793928521491     
   5.0603610812960005          276.61548522723655          -437.93535505980435          1334.6035223484789     
   6.0907232477837763          276.43763320371892          -495.96188445333047          1842.5760489495660     
   7.1272675872704792          276.27216175901873          -547.01846029168200          2406.2031748045110     
   8.1700311927941023          276.11793389635324          -591.86818685754929          3019.7007936139617     
   9.2190513799508675          275.97392044439476          -631.19168821186122          3677.8845141903043     
   10.274365688230573          275.83919029646489          -665.59606776258215          4376.1082257654152     
   11.336011882359955          275.71290142384896          -695.62286076395628          5110.2089838960792     
   12.404027953654115          275.59429262262023          -721.75510273042244          5876.4575418032946     
   13.478452121376039          275.48267595105210          -744.42361960256710          6671.5139313898062     
   14.559322834104295          275.37742981370803          -764.01263111467279          7492.3875667042266     
   15.646678771108920          275.27799264830691          -780.86474669503423          8336.4014020088580     
   16.740558843735574          275.18385717221588          -795.28542297234537          9201.1597282910734     
   17.841002196797987          275.09456514672166          -807.54694324555442          10084.519237217952     
   18.948048209978776          275.00970261890626          -817.89197183401870          10984.563021145808     
   20.061736499238648          274.92889560289802          -826.53672984212210          11899.577212665015     
   21.182106918234080          274.85180616435855          -833.67383337995670          12828.029997962660     
   22.309199559743483          274.77812887425273          -839.47483052767063          13768.552765577066     
   23.443054757101944          274.70758760015605          -844.09246920409339          14719.923176370503     
   24.583713085644554          274.63993260554264          -847.66272450340921          15681.049962155726     
   25.731215364158420          274.57493792963976          -850.30661091347736          16650.959279709026     
   26.885602656343369          274.51239902250273          -852.13180206522190          17628.782464172997     
   28.046916272281429          274.45213061194187          -853.23407822622357          18613.745041336490     
   29.215197769915118          274.39396478081426          -853.69861959917228          19605.156872184536     
   30.390488956534607          274.33774923496446          -853.60116157850587          20602.403315615327     
   31.572831890273815          274.28334574376345          -853.00902642411450          21604.937306478460     
   32.762268881615455          274.23062873674741          -851.98204430436510          22612.272256234410     
   33.958842494905149          274.17948404130669          -850.57337531396513          23623.975692683158     
   35.162595549874581          274.12980774771279          -848.83024287254432          24639.663563466725     
   36.373571123173825          274.08150518901323          -846.79458783391192          25658.995135503377     
   37.591812549912866          274.03449002446541          -844.50365167360724          26681.668429242131     
   38.817363425212342          273.98868341622932          -841.99049626000010          27707.416132706629     
   40.050267605763615          273.94401329000669          -839.28446693868204          28736.001945788586     
   41.290569211398200          273.90041367119335          -836.41160496532211          29767.217310211934     
   42.538312626666588          273.85782408891981          -833.39501469777917          30800.878485069446     
   43.793542502426590          273.81618904109172          -830.25519039625271          31836.823931878775     
   45.056303757441150          273.77545751421235          -827.01030697652254          32874.911976757154     
   46.326641579985797          273.73558255237873          -823.67647860879219          33915.018720611166     
   47.604601429465710          273.69652087040009          -820.26798864500370          34957.036171209540     
   48.890229038042506          273.65823250648793          -816.79749399458956          36000.870573690438     
   50.183570412270761          273.62068051042473          -813.27620673658532          37046.440918469598     
   51.484671834744383          273.58383066353133          -809.71405546294977          38093.677607693986     
   52.793579865752847          273.54765122712638          -806.11982858133308          39142.521263345356     
   54.110341344947365          273.51211271650891          -802.50130156831119          40192.921661862863     
   55.435003393017048          273.47718769779851          -798.86534995014483          41244.836781740465     
   56.767613413375152          273.44285060524612          -795.21804959623319          42298.231951980590     
   58.108219093855404          273.40907757687080          -791.56476573946566          43353.079090567415     
   59.456868408418536          273.37584630650531          -787.91023198402809          44409.356023273715     
   60.813609618869044          273.34313591053115          -784.25862042244648          45467.045874146672     
   62.178491276582257          273.31092680776521          -780.61360386201272          46526.136519944557     
   63.551562224241749          273.27920061112167          -776.97841104932513          47586.620101624940     
   64.932871597587194          273.24794002981787          -773.35587568418919          48648.492586728666     
   66.322468827172713          273.21712878102323          -769.74847992616117          49711.753377169087     
   67.720403640135743          273.18675150996876          -766.15839301727021          50776.404957529579     
   69.126726061976555          273.15679371763565          -762.58750557687279          51842.452579506134     
   70.541486418348413          273.12724169523938          -3249.2001855323674          56411.875653469637     
   71.964735336858510          273.09808246480605          -3873.5182564453653          61891.975722371186     
   73.396523748879659          273.06930372521566          -4185.7401626521369          67849.325882030098     
   74.836902891372944          273.04089380315139          -4743.3255928200606          74640.764500273217     
   76.285924308721178          273.01284160845478          -5307.2998286867733          82285.288476471789     
   77.743639854573502          272.98513659344167          -5842.9289777989834          90751.817705347159     
   79.210101693700949          272.95776871577857          -6307.2722046987183          99946.026450058765     
   80.685362303863158          272.93072840456432          -6656.1392637556391          109707.00067627423     
   82.169474477686336          272.90400652929776          -6839.2869698368477          119796.73134447016     
   83.662491324552448          272.89494761384094          -6831.4667518527267          129935.39431596307     
   85.164466272499766          272.88588313017544          -6804.5051301297790          140094.63510983376     
   86.675453070134765          272.87688329556249          -6757.6536658815339          150244.46162289215     
   88.195505788555579          272.86800238484733          -6691.1341320948222          160354.67695769234     
   89.724678823286908          272.85931343787604          -6605.9902682332267          170396.13042278166     
   91.263026896226634          272.85085034226313          -6504.0703712060067          180341.97945042490     
   92.810605057603993          272.84247267148135          -6380.4565426980253          190157.34247736004     
   94.367468687949611          272.83432131151295          -6242.6934684285143          199818.39855727309     
   95.933673500077305          272.82639917537136          -6093.0903352869163          209304.50929669171     
   97.509275541077770          272.81870570228676          -5933.9283001412314          218598.25635519365     
   99.094331194324241          272.81123769253207          -5767.3849806091303          227685.35990187680     
   100.68889718149019          272.80398997656209          -5595.4818183377211          236554.50999067083     
   102.29303056457913          272.79695594595091          -5420.0510744402663          245197.13908267551     
   103.90678874796660          272.79012797073415          -5247.3587255990260          253614.60238745195     
   105.53022948045439          272.78349772449621          -5069.5344662906246          261795.60511839329     
   107.16341085733713          272.77705643527685          -4892.4186738888184          269738.15687396831     
   108.80639132248115          272.77079507732572          -4717.0272090744120          277441.91786607774     
   110.45922967041604          272.76470451603541          -4544.1961092942520          284907.94330343168     
   112.12198504843853          272.75877561604676          -4374.5990402248526          292138.44835395447     
   113.79471695872917          272.75299932056498          -4208.7656854387769          299136.59613225434     
   115.47748526048154          272.74736670829827          -4047.1000810760784          305906.30958201009     
   117.17035017204444          272.74186903311119          -3889.8982113205211          312452.10698906350     
   118.87337227307670          272.73649775041179          -3737.3644245010846          318778.96008502482     
   120.58661250671516          272.73124549175185          -3589.6715103014672          324892.25000251411     
   122.31013218175545          272.72610321238517          -3446.8368087978356          330797.50950213254     
   124.04399297484598          272.72106304007673          -3308.8732008931729          336500.41756608547     
   125.78825693269505          272.71611733066470          -3175.7525982597913          342006.73048476351     
   127.54298647429123          272.71125866386870          -3047.4148567430248          347322.22638399416     
   129.30824439313696          272.70647983700195          -2923.7753742122522          352452.66140611580     
   131.08409385949579          272.70177385728874          -2804.7314989711908          357403.73589491082     
   132.87059842265276          272.69713393332518          -2690.1678773411909          362181.06908430281     
   134.66782201318867          272.69255346609503          -2579.9608655106281          366790.18094330397     
   136.47582894526781          272.68802603985318          -2473.9821235285399          371236.47997827362     
   138.29468391893943          272.68354541311049          -2372.1014998843348          375525.25593365979     
   140.12445202245306          272.67910550989501          -2274.1893048598236          379661.67646187486     
   141.96519873458777          272.67470041141297          -2180.1180602394579          383650.78695039504     
   143.81698992699529          272.67032434819720          -2089.7638029627915          387497.51279983693     
   145.67989186655726          272.66597169279902          -2003.0070107988338          391206.66354076471     
   147.55397121775661          272.66163695305158          -1919.7332095849479          394782.93826034205     
   149.43929504506315          272.65731476591606          -1839.8333140524282          398230.93188385636     
   151.33593081533354          272.65299989189782          -1763.2037475331156          401555.14192147675     
   153.24394640022555          272.64868721000789          -1689.7463802157906          404759.97534887888     
   155.16341007862690          272.64437171322635          -1621.1602555277111          407853.17438203323     
   157.09439053909867          272.64004850441245          -1553.6967811840207          410835.43892076507     
   159.03695688233327          272.63571279258923          -1489.1421973830852          413710.94340677577     
   160.99117862362726          272.63135988951916          -1427.4171725728320          416483.79596397083     
   162.95712569536903          272.62698520647359          -1368.4458696955564          419158.04263431387     
   164.93486844954126          272.62258425108269          -1312.1554010976065          421737.67070277187     
   166.92447766023849          272.61815495784828          -1258.5067081160739          424226.67322582554     
   168.92602452619994          272.61369073618454          -1207.3961977235617          426628.91982177715     
   170.93958067335714          272.60918736405557          -1158.7567302744922          428948.22572366975     
   172.96521815739729          272.60464070131644          -1112.5220255990453          431188.35128716251     
   175.00300946634167          272.60004668489171          -1068.6262242635141          433353.00062345900     
   177.05302752313972          272.59540132312480          -1027.0035027691124          435445.81943565735     
   179.11534568827855          272.59070068911257          -987.58774932790141          437470.39215445210     
   181.19003776240822          272.58594091284129          -950.31230501096331          439430.23848363117     
   183.27717798898269          272.58111817193577          -915.10977307271571          441328.80947678373     
   185.37684105691659          272.57622868083365          -881.91189735257399          443169.48327404290     
   187.48910210325809          272.57126867820324          -850.64950878571074          444955.56063139637     
   189.61403671587763          272.56623441242709          -821.25253727569554          446690.26037509291     
   191.75172093617289          272.56112212498124          -793.65008456608984          448376.71491009585     
   193.90223126178992          272.55592803154707          -767.77055233040403          450017.96590461995     
   196.06564464936065          272.55064830070631          -743.54181853584873          451616.96026290936     
   198.24203851725682          272.54527903007363          -720.89145423060506          453176.54648597719     
   200.43149074836035          272.53981621973105          -699.74697231097934          454699.47150559368     
   202.63407969285052          272.53425574283460          -680.03609954362707          456188.37806097046     
   204.84988417100763          272.52859331326454          -661.68706312577785          457645.80267092347     
   207.07898347603367          272.52282445018744          -644.62888336641026          459074.17423743615     
   209.32145737688987          272.51694443939300          -628.79166462737169          460475.81330006319     
   211.57738612115119          272.51094829125356          -614.10687742843470          461852.93194503273     
   213.84685043787809          272.50483069513132          -600.69912805869785          463208.06637467304     
   216.12993154050537          272.49858597003356          -588.10256136684825          464542.74415227078     
   218.42671112974841          272.49220801127666          -576.46483175608262          465858.86011598230     
   220.73727139652689          272.48569397609526          -565.72981183471870          467158.21680083056     
   223.06169502490604          272.47903316084876          -555.83383059027324          468442.50436472375     
   225.40006519505548          272.47377145766865          -549.90116886482440          469720.70763490646     
   227.75246558622581          272.46849903059098          -544.44100048958217          470993.81222985761     
   230.11898037974316          272.46321952308796          -539.42592951539643          472262.75799745705     
   232.49969426202162          272.45793714732247          -534.83001428632156          473528.44113828271     
   234.89469242759375          272.45265670078948          -530.62876506818020          474791.71640561678     
   237.30406058215931          272.44738358003104          -526.79912869416080          476053.39935246430     
   239.72788494565228          272.44212378979631          -523.31946256961851          477314.26860024390     
   242.16625225532619          272.43688394589827          -520.16950023968548          478575.06810807082     
   244.61924976885814          272.43167126995883          -517.33031060227745          479836.50942574686     
   247.08696526747130          272.42649357423375          -514.78425272724712          481099.27391769219     
   249.56948705907612          272.42135923480799          -512.51492811107971          482364.01494906249     
   252.06690398143058          272.41612601543301          -510.38838368508448          483631.06523374270     
   254.57930540531916          272.41092507702371          -508.49902079376841          484900.99929327372     
   257.10678123775108          272.40576216165385          -506.83256087551968          486174.36614089046     
   259.64942192517759          272.40064307708974          -505.37569890298778          487451.69100616616     
   262.20731845672867          272.39557362740851          -504.11604549768992          488733.47697463311     
   264.78056236746903          272.39055953859571          -503.04207241032861          490020.20654687576     
   267.36924574167386          272.38560638074750          -502.14306160919642          491312.34312248218     
   269.97346121612389          272.38071948880122          -501.40905801584501          492610.33241464349     
   272.59330198342064          272.37590388392658          -500.83082574585387          493914.60380113241     
   275.22886179532117          272.37116419781472          -500.39980755679244          495225.57161691715     
   277.88023496609310          272.36650460208301          -500.10808708567407          496543.63639284659     
   280.54751637588964          272.36192874487119          -499.95713535595326          497869.20932806534     
   283.23080147414498          272.35744131536626          -499.92143946461829          499202.64048990805     
   285.93018628298984          272.35304303967388          -500.00482684028759          500544.29599082435     
   288.64576740068776          272.34873571158067          -500.20160665945633          501894.53260920069     
   291.37764200509190          272.34452045105667          -500.50656366090698          503253.69878276211     
   294.12590785712246          272.34039769562781          -500.91492692507740          504622.13555059565     
   296.89066330426522          272.33636720325677          -501.42233848220241          506000.17744089157     
