 #              _____________________  _______________________             #
 #              ___  __ \__  __ \_  / / /_  /___  ____/_  ___/             #
 #              __  / / /_  /_/ /  / / /_  __/_  __/  _____ \              #
 #              _  /_/ /_  _, _// /_/ / / /_ _  /___  ____/ /              #
 #              /_____/ /_/ |_| \____/  \__/ /_____/  /____/               #
 #                                                                         #
  
 #        time                      T            heat flux [W.L-2]   in    x              directions   cumulative flux
 #-----------------------------------------------------------------------------------------------

   0.0000000000000000          5.0792999999999999          -5.9530624549972080          0.0000000000000000     
   1.0000000000000000          5.0793006120601412          -5.9532497010281435          0.0000000000000000     
   2.0060000000000002          5.0793011926044693          -5.9534220352704059          5.9534220352704059     
   3.0180360000000004          5.0793017438594186          -5.9535812270174118          11.942724749649923     
   4.0361442160000003          5.0793022676434418          -5.9537291585180991          17.968112992319945     
   5.0603610812960005          5.0793027653049139          -5.9538678422953515          24.029794759539033     
   6.0907232477837763          5.0793032376560197          -5.9539994253617214          30.127981386957202     
   7.1272675872704792          5.0793036849055229          -5.9541261830869683          36.262887740504283     
   8.1700311927941023          5.0793041065927858          -5.9542505051027046          42.434732397454333     
   9.2190513799508675          5.0793045015249465          -5.9543748752840715          48.643737811044822     
   10.274365688230573          5.0793048677187906          -5.9545018475533933          54.890130453590587     
   11.336011882359955          5.0793052023484551          -5.9546340189717863          61.174140934380596     
   12.404027953654115          5.0793055016998752          -5.9547740013659967          67.496004089831402     
   13.478452121376039          5.0793057611325239          -5.9549243924864363          73.855959044348523     
   14.559322834104295          5.0793059750488458          -5.9550877475516408          80.254249241222723     
   15.646678771108920          5.0793061368715584          -5.9552665518322261          86.691122443588370     
   16.740558843735574          5.0793062390288188          -5.9554631948047323          93.166830706071835     
   17.841002196797987          5.0793062729471430          -5.9556799462671854          99.681630318235690     
   18.948048209978776          5.0793062290518307          -5.9559189347125789          106.23578172131872     
   20.061736499238648          5.0793060967745829          -5.9561821281558309          112.82954940007228     
   21.182106918234080          5.0793058645678775          -5.9564713175251143          119.46320175171232     
   22.309199559743483          5.0793055199256774          -5.9567881026826104          126.13701093418183     
   23.443054757101944          5.0793050494099514          -5.9571338810542951          132.85125269600448     
   24.583713085644554          5.0793044386824864          -5.9575098388328787          139.60620619007929     
   25.731215364158420          5.0793036725414531          -5.9579169446530980          146.40215377376299     
   26.885602656343369          5.0793027349621678          -5.9583559456368098          153.23938079757787     
   28.046916272281429          5.0793016091415035          -5.9588273656573012          160.11817538481657     
   29.215197769915118          5.0793002775454097          -5.9593315056675316          167.03882820423692     
   30.390488956534607          5.0792987219590238          -5.9598684459337852          174.00163223795221     
   31.572831890273815          5.0792969235388474          -5.9604380499872258          181.00688254649367     
   32.762268881615455          5.0792948628665293          -5.9610399701230037          188.05487603290558     
   33.958842494905149          5.0792925200037740          -5.9616736542636222          195.14591120759366     
   35.162595549874581          5.0792898745479587          -5.9623383540088852          202.28028795550580     
   36.373571123173825          5.0792869056880514          -5.9630331337029538          209.45830730708468     
   37.591812549912866          5.0792835922604720          -5.9637568803513110          216.68027121428543     
   38.817363425212342          5.0792799128045338          -5.9645083142251982          223.94648233280401     
   40.050267605763615          5.0792758456171887          -5.9652860000095016          231.25724381152736     
   41.290569211398200          5.0792713688067783          -5.9660883583468998          238.61285909007154     
   42.538312626666588          5.0792664603455489          -5.9669136776528902          246.01363170514736     
   43.793542502426590          5.0792610981207167          -5.9677601260776694          253.45986510636203     
   45.056303757441150          5.0792552599839000          -5.9686257635095350          260.95186248195006     
   46.326641579985797          5.0792489237987430          -5.9695085535161310          268.48992659480825     
   47.604601429465710          5.0792420674866205          -5.9704063751391052          276.07435962910915     
   48.890229038042506          5.0792346690702788          -5.9713170344562743          283.70546304765975     
   50.183570412270761          5.0792267067153656          -5.9722382758551280          291.38353746009818     
   51.484671834744383          5.0792181587697538          -5.9731677929461977          299.10888250192318     
   52.793579865752847          5.0792090038006226          -5.9741032390707911          306.88179672428248     
   54.110341344947365          5.0791992206292695          -5.9750422373644483          314.70257749438360     
   55.435003393017048          5.0791887883636404          -5.9759823903348215          322.57152090632127     
   56.767613413375152          5.0791776864285820          -5.9769212889367873          330.48892170207557     
   58.108219093855404          5.0791658945938325          -5.9778565211131607          338.45507320237402     
   59.456868408418536          5.0791533929997863          -5.9787856798015380          346.47026724708996     
   60.813609618869044          5.0791401621810541          -5.9797063703869737          354.53479414480114     
   62.178491276582257          5.0791261830878938          -5.9806162176030071          362.64894263111182     
   63.551562224241749          5.0791114371055546          -5.9815128718878379          370.81299983532705     
   64.932871597587194          5.0790959060715943          -5.9823940151911055          379.02725125503798     
   66.322468827172713          5.0790795722912545          -5.9832573662502178          387.29198073817764     
   67.720403640135743          5.0790624185509419          -5.9841006853387748          395.60747047208525     
   69.126726061976555          5.0790444281299374          -5.9849217785178528          403.97400097913601     
   70.541486418348413          5.0790255848103660          -5.9857185013910126          412.39185111846962     
   71.964735336858510          5.0790058728855456          -5.9864887623946661          420.86129809337120     
   73.396523748879659          5.0789852771667716          -5.9872305256334073          429.38261746384956     
   74.836902891372944          5.0789637829886560          -5.9879418132984235          437.95608316398716     
   76.285924308721178          5.0789413762130629          -5.9886207076729594          446.58196752362261     
   77.743639854573502          5.0789180432317647          -5.9892653527629571          455.26054129395789     
   79.210101693700949          5.0788937709678814          -5.9898739555734961          463.99207367669334     
   80.685362303863158          5.0788685468761727          -5.9904447870437307          472.77683235629286     
   82.169474477686336          5.0788423589423006          -5.9909761826855412          481.61508353502876     
   83.662491324552448          5.0788151956810976          -5.9914665429287046          490.50709197044353     
   85.164466272499766          5.0787870461339457          -5.9919143332087348          499.45312101490271     
   86.675453070134765          5.0787578998653222          -5.9923180838152108          508.45343265692480     
   88.195505788555579          5.0787277469585916          -5.9926763895226136          517.50828756399244     
   89.724678823286908          5.0786965780110966          -5.9929879090254010          526.61794512656957     
   91.263026896226634          5.0786643841286443          -5.9932513642024912          535.78266350307479     
   92.810605057603993          5.0786311569193927          -5.9934655392204519          545.00269966556516     
   94.367468687949611          5.0785968884872563          -5.9936292795047859          554.27830944591869     
   95.933673500077305          5.0785615714248369          -5.9937414905877873          563.60974758230839     
   97.509275541077770          5.0785251988059628          -5.9938011368614683          572.99726776579723     
   99.094331194324241          5.0784877641778694          -5.9938072402398399          582.44112268688252     
   100.68889718149019          5.0784492615530583          -5.9937588787477347          591.94156408183778     
   102.29303056457913          5.0784096854008993          -5.9936551850571043          601.49884277873070     
   103.90678874796660          5.0783690306389984          -5.9934953449775419          611.11320874299736     
   105.53022948045439          5.0783272926243637          -5.9932785959106605          620.78491112246923     
   107.16341085733713          5.0782844671444245          -5.9930042252909050          630.51419829177792     
   108.80639132248115          5.0782405504078998          -5.9926715690043393          640.30131789605036     
   110.45922967041604          5.0781955390355860          -5.9922800098150395          650.14651689384948     
   112.12198504843853          5.0781494300510532          -5.9918289757949035          660.05004159931070     
   113.79471695872917          5.0781022208712843          -5.9913179387655733          670.01213772343579     
   115.47748526048154          5.0780539092972958          -5.9907464127641088          680.03305041452541     
   117.17035017204444          5.0780044935047259          -5.9901139525354727          690.11302429773673     
   118.87337227307670          5.0779539720344413          -5.9894201520614647          700.25230351376922     
   120.58661250671516          5.0779023437831468          -5.9886646431235482          710.45113175667916     
   122.31013218175545          5.0778496079940281          -5.9878470939142439          720.70975231084822     
   124.04399297484598          5.0777957642474387          -5.9869672076903484          731.02840808712358     
   125.78825693269505          5.0777408124516352          -5.9860247214817690          741.40734165817150     
   127.54298647429123          5.0776847528335640          -5.9850194048534862          751.84679529308482     
   129.30824439313696          5.0776275859297177          -5.9839510587225737          762.34701099129097     
   131.08409385949579          5.0775693125770607          -5.9828195142396261          772.90823051582731     
   132.87059842265276          5.0775099339040244          -5.9816246317249782          783.53069542603487     
   134.66782201318867          5.0774494513215727          -5.9803662996752553          794.21464710975488     
   136.47582894526781          5.0773878665143544          -5.9790444338326347          804.96032681510133     
   138.29468391893943          5.0773251814319273          -5.9776589763227337          815.76797568189784     
   140.12445202245306          5.0772613982800472          -5.9762098948577433          826.63783477286529     
   141.96519873458777          5.0771965195120510          -5.9746971820141344          837.57014510466752     
   143.81698992699529          5.0771305478202917          -5.9731208545787213          848.56514767891667     
   145.67989186655726          5.0770634861276474          -5.9714809529644715          859.62308351324555     
   147.55397121775661          5.0769953375790946          -5.9697775407043006          870.74419367257713     
   149.43929504506315          5.0769261055333414          -5.9680107040185515          881.92871930071499     
   151.33593081533354          5.0768557935544987          -5.9661805514511537          893.17690165237877     
   153.24394640022555          5.0767844054038118          -5.9642872135918745          904.48898212584334     
   155.16341007862690          5.0767119450314135          -5.9623308428638744          915.86520229630992     
   157.09439053909867          5.0766384165681187          -5.9603116134027267          927.30580395019024     
   159.03695688233327          5.0765638243172289          -5.9582297210032582          938.81102912044969     
   160.99117862362726          5.0764881727463500          -5.9560853831525193          950.38112012319323     
   162.95712569536903          5.0764114664792119          -5.9538788391432602          962.01631959567726     
   164.93486844954126          5.0763337102874670          -5.9516103502693145          973.71687053593723     
   166.92447766023849          5.0762549090824800          -5.9492802001071201          985.48301634423933     
   168.92602452619994          5.0761750679070703          -5.9468886948797373          997.31500086656342     
   170.93958067335714          5.0760941919272113          -5.9444361639103809          1009.2130684403461     
   172.96521815739729          5.0760122864236674          -5.9419229601626720          1021.1774639427161     
   175.00300946634167          5.0759293567835559          -5.9393494608704280          1033.2084328414689     
   177.05302752313972          5.0758454084918192          -5.9367160682629097          1045.3062212490456     
   179.11534568827855          5.0757604471225939          -5.9340232103779291          1057.4710759797790     
   181.19003776240822          5.0756744783304457          -5.9312713419709562          1069.7032446106932     
   183.27717798898269          5.0755875078414938          -5.9284609455270658          1082.0029755461655     
   185.37684105691659          5.0754995414443522          -5.9255925323618461          1094.3705180867471     
   187.48910210325809          5.0754105849809186          -5.9226666438304685          1106.8061225024819     
   189.61403671587763          5.0753206443369629          -5.9196838526311142          1119.3100401110514     
   191.75172093617289          5.0752297254325169          -5.9166447642205169          1131.8825233611178     
   193.90223126178992          5.0751378342120281          -5.9135500183292145          1144.5238259212269     
   196.06564464936065          5.0750449766342722          -5.9104002905846906          1157.2342027746593     
   198.24203851725682          5.0749511586619986          -5.9071962942435343          1170.0139103206341     
   200.43149074836035          5.0748563862512839          -5.9039387820357447          1182.8632064822909     
   202.63407969285052          5.0747606653405803          -5.9006285481169023          1195.7823508218787     
   204.84988417100763          5.0746640018394364          -5.8972664301364572          1208.7716046636103     
   207.07898347603367          5.0745664016168606          -5.8938533114178249          1221.8312312246510     
   209.32145737688987          5.0744678704893182          -5.8903901232557230          1234.9614957547326     
   211.57738612115119          5.0743684142083278          -5.8868778473281669          1248.1626656848946     
   213.84685043787809          5.0742680384476335          -5.8833175182239863          1261.4350107858725     
   216.12993154050537          5.0741667487899491          -5.8797102260900882          1274.7788033366783     
   218.42671112974841          5.0740645507132207          -5.8760571193928302          1288.1943183039225     
   220.73727139652689          5.0739614495764149          -5.8723594077991530          1301.6818335324549     
   223.06169502490604          5.0738574506047822          -5.8686183651737736          1315.2416299479119     
   225.40006519505548          5.0737525588745944          -5.8648353326907889          1328.8739917717712     
   227.75246558622581          5.0736467792973237          -5.8610117220664231          1342.5792067495474     
   230.11898037974316          5.0735401166032208          -5.8571490188971396          1356.3575663927440     
   232.49969426202162          5.0734325753243175          -5.8532487861194600          1370.2093662352333     
   234.89469242759375          5.0733241597767726          -5.8493126675762950          1384.1349061047194     
   237.30406058215931          5.0732148740425771          -5.8453423916880061          1398.1344904099533     
   239.72788494565228          5.0731047219505889          -5.8413397752395984          1412.2084284444127     
   242.16625225532619          5.0729937070568667          -5.8373067272613532          1426.3570347071300     
   244.61924976885814          5.0728818326242839          -5.8332452530156935          1440.5806292413940     
   247.08696526747130          5.0727691016014029          -5.8291574580732526          1454.8795379920339     
   249.56948705907612          5.0726555166006015          -5.8250455524909315          1469.2540931820433     
   252.06690398143058          5.0725410798754043          -5.8209118550645025          1483.7046337092518     
   254.57930540531916          5.0724257932970298          -5.8167587976729989          1498.2315055638144     
   257.10678123775108          5.0723096583301119          -5.8125889296965259          1512.8350622672629     
   259.64942192517759          5.0721926760076048          -5.8084049225058232          1527.5156653338749     
   262.20731845672867          5.0720748469048198          -5.8042095740136572          1542.2736847551125     
   264.78056236746903          5.0719561711126202          -5.8000058132874983          1557.1094995078965     
   267.36924574167386          5.0718366482097270          -5.7957967052130348          1572.0234980874750     
   269.97346121612389          5.0717162772341453          -5.7915854551977839          1587.0160790656319     
   272.59330198342064          5.0715950566536971          -5.7873754139164895          1602.0876516750050     
   275.22886179532117          5.0714729843356317          -5.7831700820757197          1617.2386364202378     
   277.88023496609310          5.0713500575153461          -5.7789731152061368          1632.4694657167286     
   280.54751637588964          5.0712262727641697          -5.7747883284584267          1647.7805845576902     
   283.23080147414498          5.0711016259562331          -5.7706197014020404          1663.1724512102455     
   285.93018628298984          5.0709761122344101          -5.7664713828171568          1678.6455379412746     
   288.64576740068776          5.0708497259753438          -5.7623476954623243          1694.2003317736878     
   291.37764200509190          5.0707224607535366          -5.7582531408203703          1709.8373352738245     
   294.12590785712246          5.0705943093045356          -5.7541924038016257          1725.5570673706252     
   296.89066330426522          5.0704652634871952          -5.7501703573951897          1741.3600642072126     
