 #              _____________________  _______________________             #
 #              ___  __ \__  __ \_  / / /_  /___  ____/_  ___/             #
 #              __  / / /_  /_/ /  / / /_  __/_  __/  _____ \              #
 #              _  /_/ /_  _, _// /_/ / / /_ _  /___  ____/ /              #
 #              /_____/ /_/ |_| \____/  \__/ /_____/  /____/               #
 #                                                                         #
  
 #        time                      T            heat flux [W.L-2]   in    x              directions   cumulative flux
 #-----------------------------------------------------------------------------------------------

   0.0000000000000000        10.000000000000000       -0.0000000000000000        0.0000000000000000     
   1.0000000000000000        10.000000000000000       -3.3892888495756747E-012   3.3892888495756747E-012
   1.9540000000000002        9.9999999999999982       -3.1068481121110355E-011   3.4457769970686033E-011
   2.8641160000000001        9.9999999999999876       -1.4743406495654191E-010   1.8189183492722794E-010
   3.8288389600000006        9.9999999999999289       -6.1402616324812677E-010   7.9591799817535471E-010
   4.8514452976000007        9.9999999999996980       -2.3030217732866744E-009   3.0989397714620290E-009
   5.9354080154560007        9.9999999999988738       -7.8247381907204098E-009   1.0923677962182440E-008
   7.0844084963833609        9.9999999999961666       -2.4385933272697313E-008   3.5309611234879756E-008
   8.3023490061663630        9.9999999999879119       -7.0522627737548618E-008   1.0583223897242837E-007
   9.5933659465363448        9.9999999999642988       -1.9112764704234178E-007   2.9695988601477018E-007
   10.961843903328527        9.9999999999005187       -4.8944098907113092E-007   7.8640087508590110E-007
   12.412430537528239        9.9999999997366906       -1.1923167946300559E-006   1.9787176697159570E-006
   13.950052369779934        9.9999999993342676       -2.7784943732498277E-006   4.7572120429657847E-006
   15.579931511966731        9.9999999983846664       -6.2222519190623411E-006   1.0979463962028127E-005
   17.307603402684734        9.9999999962238135       -1.3441901501307324E-005   2.4421365463335452E-005
   19.138935606845820        9.9999999914671616       -2.8101605554976555E-005   5.2522971018312004E-005
   21.080147743256571        9.9999999813110989       -5.7005909946236701E-005   1.0952888096454871E-004
   23.137832607851966        9.9999999602312375       -1.1246241158204704E-004   2.2199129254659575E-004
   25.318978564323086        9.9999999176173056       -2.1618508036843744E-004   4.3817637291503319E-004
   27.630993278182473        9.9999998335791513       -4.0558721566369269E-004   8.4376358857872588E-004
   30.081728874873424        9.9999996716818149       -7.4368736433867884E-004   1.5874509529174047E-003
   32.679508607365833        9.9999993666446336       -1.3343395213527066E-003   2.9217904742701115E-003
   35.433155123807786        9.9999988039724101       -2.3451079314265409E-003   5.2668984056966524E-003
   38.352020431236255        9.9999977869580050       -4.0408293753490159E-003   9.3077277810456674E-003
   41.446017657110431        9.9999959843718482       -6.8317101980725362E-003   1.6139437979118203E-002
   44.725654716537058        9.9999928492983301       -1.1340626545105526E-002   2.7480064524223729E-002
   48.202069999529286        9.9999874958749011       -1.8495027265298648E-002   4.5975091789522374E-002
   51.887070199501046        9.9999785160718826       -2.9649325680545451E-002   7.5624417470067817E-002
   55.793170411471110        9.9999637131513825       -4.6743709771228402E-002  0.12236812724129623     
   59.933636636159378        9.9999397222436546       -7.2504668147941639E-002  0.19487279538923785     
   64.322530834328944        9.9999014819647982      -0.11069098125742256       0.30556377664666040     
   68.974758684388689        9.9998415148080220      -0.16638625480158700       0.47195003144824743     
   73.906120205452012        9.9997489690834822      -0.24633514849208041       0.71828517994032781     
   79.133363417779137        9.9996083726284244      -0.35931529067296408        1.0776004706132918     
   84.674241222845893        9.9993980497148716      -0.51653067258853658        1.5941311432018284     
   90.547571696216650        9.9990881589479930      -0.73200551752713672        2.3261366607289649     
   96.773301997989648        9.9986383227205984       -1.0229508837797543        3.3490875445087189     
   99.476364677492242        9.9984181330170419       -1.1616749309542393        4.5107624754629585     
   101.76856182971045        9.9982122634198500       -1.2885957336995983        5.7993582091625573     
   104.19829081106174        9.9979709918530020       -1.4339816461671697        7.2333398553297270     
   106.25870098724764        9.9977488648373978       -1.5653190476708325        8.7986589030005593     
   108.44273577400469        9.9974925590663482       -1.7138661574954857        10.512525060496046     
   110.75781264796716        9.9971960478113093       -1.8821322208215385        12.394657281317585     
   113.21179413436738        9.9968521607425878       -2.0730007955059344        14.467658076823518     
   115.81301450995161        9.9964523633027262       -2.2897805108816636        16.757438587705181     
   118.57030810807090        9.9959864957317031       -2.5362602200801896        19.293698807785372     
   121.49303932207735        9.9954424657611121       -2.8167679138415203        22.110466721626892     
   124.59113440892419        9.9948058886220803       -3.1362323593862458        25.246699081013137     
   127.87511520098184        9.9940596679657840       -3.5002458459861501        28.746944926999287     
   131.35613484056293        9.9931835115814209       -3.9151257433054805        32.662070670304765     
   135.04601565851891        9.9921533765822446       -4.3879718002547232        37.050042470559490     
   138.95728932555224        9.9909408401595030       -4.9267152738132243        41.976757744372712     
   143.10323941260756        9.9895123942206894       -5.5401551439987742        47.516912888371486     
   147.49794650488622        9.9878286653513744       -6.2379759342181265        53.754888822589614     
   152.15633602270159        9.9858435656382643       -7.0307411274572447        60.785629950046861     
   157.09422891158587        9.9835033849542114       -7.9298559689098722        68.715485918956730     
   162.32839537380323        9.9807458412209247       -8.9474936887054568        77.662979607662180     
   167.87661182375362        9.9774991116944527       -10.096479958349429        87.759459566011614     
   173.75772126070103        9.9736808750799764       -11.390131792371948        99.149591358383560     
   179.99169726386529        9.9691974007047737       -12.842049235132514        111.99164059351608     
   186.59971182721941        9.9639427262018678       -14.465861253286279        126.45750184680236     
   193.60420726437476        9.9577979678638400       -16.274931682342000        142.73243352914437     
   201.02897242775944        9.9506308060327004       -18.282037388779273        161.01447091792363     
   208.89922350094722        9.9422951788440468       -20.499039447694045        181.51351036561766     
   217.24168963852625        9.9326311980803315       -22.936578936819615        204.45008930243728     
   226.08470374436004        9.9214652677261093       -25.603840791247471        230.05393009368476     
   235.45829869654384        9.9086103362425497       -28.508441152473800        258.56237124615853     
   245.39430934585866        9.8938661433955382       -31.656507200711292        290.21887844686984     
   255.92648063413239        9.8770192280378648       -35.053032166893374        325.27191061376323     
   258.85308287493723        9.8722447278572769       -36.001060942298984        361.27297155606220     
   261.77968511574204        9.8673778985914442       -36.952963469312067        398.22593502537427     
   264.26144381594452        9.8631849781661654       -37.762756004693422        435.98869103006768     
   266.89210803815917        9.8586671561858648       -38.623800181320590        474.61249121138826     
   269.12291129859716        9.8547837230889161       -39.355744840197815        513.96823605158602     
   271.48756275466144        9.8506089882590526       -40.133451367117061        554.10168741870302     
   273.99409329808958        9.8461188635579084       -40.959716985923002        595.06140440462605     
   276.65101567412341        9.8412871154355805       -41.837491848927954        636.89889625355397     
   279.46735339271930        9.8360851737298400       -42.769883015658728        679.66877926921268     
   282.45267137443091        9.8304819270234454       -43.760156861614405        723.42893613082708     
   285.61710843504522        9.8244434815310928       -44.811750012821761        768.24068614364887     
   288.97141171929638        9.8179329475860424       -45.928257373476640        814.16894351712551     
   292.52697320060264        9.8109101493523738       -47.113446186837422        861.28238970396296     
   296.29586837078728        9.8033313657556054       -48.371243653859700        909.65363335782263     
   300.29089725118297        9.7951490331124536       -49.705730541637543        959.35936389946016     
   304.52562786440240        9.7863114380711060       -51.121126402178270        1010.4804903016384     
   308.76035847762182        9.7773124020370581       -52.536843004073503        1063.0173333057119     
   313.24917292763445        9.7675955019700407       -54.037235495198196        1117.0545688009101     
   318.00731624464782        9.7570997868189604       -55.626620085518041        1172.6811888864281     
   323.05094816068203        9.7457592708066567       -57.309326304359807        1229.9905151907878     
   328.09458007671623        9.7342086849207821       -58.989100804781884        1288.9796159955697     
   333.13821199275043        9.7224530705993928       -60.665046186762638        1349.6446621823322     
   338.18184390878463        9.7104975297199836       -62.336260259799168        1411.9809224421315     
   343.22547582481883        9.6983472076640069       -64.001846468712031        1475.9827689108436     
   348.57172565581504        9.6852552921614539       -65.759959403238071        1541.7427283140817     
   354.23875047667104        9.6711465211794803       -67.613983284960540        1609.3567115990422     
   360.24579678677839        9.6559403793053544       -69.567021354104142        1678.9237329531463     
   366.61326587549217        9.6395509754433917       -71.621811942239830        1750.5455448953862     
   373.36278310952883        9.6218870062142461       -73.780630128637398        1824.3261750240235     
   380.51727137760764        9.6028517984672508       -76.045183411634270        1900.3713584356578     
   388.10102894177118        9.5823434441296094       -78.416503400750031        1978.7878618364080     
   396.13981195978454        9.5602550404744875       -80.894835455134540        2059.6826972915424     
   404.66092195887870        9.5364750486462242       -83.479528050003879        2143.1622253415462     
   413.69329855791852        9.5108877826701725       -86.168923894548030        2229.3311492360945     
   423.26761775290072        9.4833740392819017       -88.960256163162569        2318.2914053992572     
   433.41639609958185        9.4538118737880126       -91.849556552851283        2410.1409619521087     
   444.17410114706388        9.4220775153232168       -94.831588421241349        2504.9725503733498     
   455.57726849739481        9.3880463901912332       -97.899829908152611        2602.8723802815025     
   467.66462588874560        9.3515941732338241       -101.04655259092846        2703.9189328724310     
   480.47722472357748        9.3125976928420826       -104.26307861231345        2808.1820114847446     
   494.05857948849922        9.2709353358483888       -107.54036586569183        2915.7223773504365     
   508.45481553931626        9.2264862796813443       -110.87017235804832        3026.5925497084850     
   523.71482575318237        9.1791274138826786       -114.24713567436579        3140.8396853828508     
   530.34035594779789        9.1585254867973820       -115.68546861140003        3256.5251539942510     
   537.36341795409032        9.1366489738422789       -117.18008120074400        3373.7052351949951     
   544.38647996038276        9.1147394763391247       -118.64613414654728        3492.3513693415425     
   551.40954196667519        9.0928015920327621       -120.08523043675669        3612.4365997782993     
   558.85398769334518        9.0695202228418967       -121.58237079785577        3734.0189705761550     
   566.74510016361535        9.0448155703797006       -123.13991214014864        3857.1588827163037     
   575.10967938210172        9.0186028054886282       -124.76048748875779        3981.9193702050616     
   583.97613335369726        8.9907916358000595       -126.44688317731882        4108.3662533823808     
   593.37457456358857        8.9612860719178755       -128.20182992353764        4236.5680833059187     
   603.33692224607341        8.9299843983048000       -130.02772954725233        4366.5958128531711     
   613.89701078950736        8.8967793968394293       -131.92635609803230        4498.5221689512036     
   625.09070464554725        8.8615588212301208       -133.89859355286515        4632.4207625040690     
   636.95602013294956        8.8242060364127468       -135.94429772776505        4768.3650602318339     
   649.53325454959599        8.7846006100989928       -138.06239789044338        4906.4274581222771     
   658.06565037784901        8.7577302852646159       -139.47616652551835        5045.9036246477954     
   667.10998995579712        8.7292495560856320       -140.94881473545101        5186.8524393832467     
   676.15432953374523        8.7007748333235337       -142.39556695704172        5329.2480063402882     
   685.19866911169333        8.6723104664243493       -143.81638199589435        5473.0643883361827     
   694.24300868964144        8.6438610142094010       -145.21109826156544        5618.2754865977477     
   703.83000864226653        8.6137271180572803       -146.65981446749356        5764.9353010652412     
   713.41700859489163        8.5836218823142385       -148.07836275477928        5913.0136638200202     
   723.57922854467415        8.5517502828755632       -149.54748391658327        6062.5611477366037     
   734.35118169144368        8.5180209485413449       -151.06519634633949        6213.6263440829434     
   745.76945202701938        8.4823410691362184       -152.62873177499966        6366.2550758579428     
   757.87281858272956        8.4446171421039988       -154.23443995327995        6520.4895158112231     
   770.70238713178242        8.4047559079308112       -155.87766460357986        6676.3671804148025     
   784.30172979377846        8.3626655005235460       -157.55261168066113        6833.9197920954639     
   798.71703301549417        8.3182568047141938       -159.25224370456974        6993.1720358000339     
   813.99725443051284        8.2714449733105617       -160.96823382624183        7154.1402696262758     
   830.19428913043271        8.2221510229760657       -162.69100235619831        7316.8312719824744     
   847.36314591234770        8.1703034110223172       -164.40984161883517        7481.2411136013097     
   865.56213410117766        8.1158394995487271       -166.11311646201355        7647.3542300633235     
   884.85306158133733        8.0587069972900860       -167.78839643658330        7815.1426264999063     
   905.30144471030667        7.9988658982998722       -169.42222016006815        7984.5648466599741     
   926.97673082701408        7.9362901155880374       -171.00040171775026        8155.5652483777249     
   949.95253411072395        7.8709651404306857       -172.51069756390410        8328.0759459416295     
   974.30688559145642        7.8028724497846742       -173.95114442302787        8502.0270903646579     
   994.95937564711755        7.7459450581952023       -175.08043789352769        8677.1075282581860     
   1016.8510151061184        7.6864673126407475       -176.20681847677503        8853.3143467349619     
   1040.0561529326594        7.6243069000808035       -177.35400326035278        9030.6683499953142     
   1064.6535990287928        7.5593163309795255       -178.53397579198463        9209.2023257872988     
   1089.2510451249261        7.4951629329026979       -179.67374865631444        9388.8760744436131     
   1115.3243379868275        7.4280773932420221       -180.81810150924079        9569.6941759528545     
   1142.9620284204429        7.3580190967426367       -181.93458728704775        9751.6287632399017     
   1172.2579802800753        7.2849983028545058       -182.98840160292403        9934.6171648428262     
   1203.3116892512855        7.2090568038716771       -183.95406172329973        10118.571226566126     
   1236.2286207607685        7.1302108389091572       -184.83556693016928        10303.406793496295     
   1271.1205681608203        7.0483277383985508       -185.69977755303677        10489.106571049331     
   1308.1060324048754        6.9631440550134176       -186.61509704260450        10675.721668091935     
   1341.3929502245248        6.8876036385185566       -187.45314733705763        10863.174815428993     
   1376.6770831133533        6.8086623354995037       -188.34316568010320        11051.517981109097     
   1414.0782639755116        6.7261478135527586       -189.27905724295832        11240.797038352055     
   1453.7235156893994        6.6399741554143681       -190.22158086750272        11431.018619219558     
   1475.2397866995605        6.5935800570290821       -190.71999194560084        11621.738611165159     
   1498.0470339703313        6.5448148527557155       -191.23362261553362        11812.972233780692     
   1522.2227160773484        6.4935917004601027       -191.75336137868715        12004.725595159380     
   1547.8489391107864        6.4398480969589755       -192.26157918621681        12196.987174345597     
   1575.0127355262307        6.3835465351903942       -192.73934094096836        12389.726515286566     
   1603.8063597266016        6.3246529876775002       -193.17912925796026        12582.905644544526     
   1634.3276013789948        6.2630883846106071       -193.60006241282008        12776.505706957345     
   1666.6801175305318        6.1986543568494268       -194.06200646065403        12970.567713417999     
   1684.2384750962938        6.1638962592928941       -194.32765675985709        13164.895370177856     
   1701.7968326620557        6.1293219090814048       -194.61021130375809        13359.505581481613     
   1720.4086916817635        6.0928567676276524       -194.92504518702813        13554.430626668642     
   1739.0205507014712        6.0565695042840701       -195.24431025088407        13749.674936919526     
   1758.7491212623615        6.0183137512114939       -195.57515721384530        13945.250094133371     
   1779.6614060569052        5.9780169699351839       -195.90716436836462        14141.157258501735     
   1801.8284279391216        5.9356164918727146       -196.22974555992099        14337.387004061657     
   1825.3254711342709        5.8910630513355837       -196.53020175692902        14533.917205818585     
   1850.2323369211292        5.8443261934272286       -196.79266425698108        14730.709870075567     
   1876.6336146551989        5.7953988164742656       -196.99867960851864        14927.708549684086     
