 #              _____________________  _______________________             #
 #              ___  __ \__  __ \_  / / /_  /___  ____/_  ___/             #
 #              __  / / /_  /_/ /  / / /_  __/_  __/  _____ \              #
 #              _  /_/ /_  _, _// /_/ / / /_ _  /___  ____/ /              #
 #              /_____/ /_/ |_| \____/  \__/ /_____/  /____/               #
 #                                                                         #
  
 #        time                      T            heat flux [W.L-2]   in    x              directions   cumulative flux
 #-----------------------------------------------------------------------------------------------

   0.0000000000000000        10.000000000000000       -0.0000000000000000        0.0000000000000000     
   1.0000000000000000        9.4274815285403655       -176.64146259412195        176.64146259412195     
   1.9540000000000002        8.9269234651585165       -326.46445017009114        503.10591276421309     
   2.8641160000000001        8.4868436919421679       -454.16473378854755        957.27064655276058     
   3.8288389600000006        8.0568828581806304       -574.69065436155267        1531.9613009143131     
   4.8514452976000007        7.6379572888722986       -687.66019721423595        2219.6214981285493     
   5.9354080154560007        7.2308446977625653       -792.77187030832670        3012.3933684368758     
   7.0844084963833609        6.8361707821070201       -889.81020957798830        3902.2035780148640     
   8.3023490061663630        6.4543992691415886       -978.64936348459901        4880.8529414994628     
   9.5933659465363448        6.0858259379674200       -1059.2545364498806        5940.1074779493429     
   10.961843903328527        5.7305770051038012       -1131.6811425915103        7071.7886205408531     
   12.412430537528239        5.3886120911717788       -1196.0716092849300        8267.8602298257829     
   13.950052369779934        5.0597317871560410       -1252.6498709787645        9520.5101008045476     
   15.579931511966731        4.7435896219163078       -1301.7137021445863        10822.223802949135     
   17.307603402684734        4.4397080114871850       -1343.6251474556586        12165.848950404794     
   19.138935606845820        4.1474975607473050       -1378.7994093594657        13544.648359764260     
   21.080147743256571        3.8662789057006881       -1407.6926397575116        14952.340999521772     
   23.137832607851966        3.5953061457242987       -1430.7891455081140        16383.130145029885     
   25.318978564323086        3.3337908331889943       -1448.5885501807065        17831.718695210591     
   27.630993278182473        3.0809254723038144       -1461.5934523720946        19293.312147582685     
   30.081728874873424        2.8359055338033725       -1470.2980823800249        20763.610229962709     
   32.679508607365833        2.5979491146537410       -1475.1783860154246        22238.788615978134     
   35.433155123807786        2.3663135530153392       -1476.6838622715211        23715.472478249656     
   38.352020431236255        2.1403085328509626       -1475.2313590741728        25190.703837323828     
   41.446017657110431        1.9193054597046246       -1471.2008993494092        26661.904736673237     
   44.725654716537058        1.7027431367375807       -1464.9334801785942        28126.838216851833     
   48.202069999529286        1.4901299957438934       -1456.7306725080750        29583.568889359907     
   51.887070199501046        1.2810433222149977       -1446.8557575361135        31030.424646896019     
   55.793170411471110        1.0751260426074190       -1435.5360752427259        32465.960722138745     
   59.933636636159378       0.87208170884432801       -1422.9662334340717        33888.926955572817     
   64.322530834328944       0.67166832040660585       -1409.3118309738306        35298.238786546644     
   68.974758684388689       0.47369157581327881       -1394.7133817824752        36692.952168329117     
   73.906120205452012       0.27799805590867177       -1379.2901792545129        38072.242347583633     
   79.133363417779137        8.4468727253180109E-002  -1363.1439051690634        39435.386252752694     
   84.674241222845893      -0.10698696842907585       -1397.1893248230433        40832.575577575735     
   90.547571696216650      -0.29643628879802386       -1526.5074639419349        42359.083041517668     
   95.528155937635049      -0.44413880243834514       -1567.7951772843910        43926.878218802056     
   98.231218617137642      -0.51734437639895914       -1550.6782767523837        45477.556495554440     
   101.09646505741040      -0.51821029378334249       -1543.2463331514218        47020.802828705862     
   104.13362628409952      -0.51921366230751076       -1534.8447546093175        48555.647583315178     
   107.35301718438998      -0.52038587038920425       -1525.3919559445990        50081.039539259778     
   110.76557153869787      -0.52176739089095625       -1514.7961158198739        51595.835655079652     
   114.38287915426423      -0.52341094982213576       -1502.9536463184486        53098.789301398101     
   118.21722522676458      -0.52538604831982083       -1489.7475338799013        54588.536835278006     
   122.28163206361495      -0.52778556103667973       -1475.0456310857244        56063.582466363732     
   126.58990331067633      -0.53073560962907540       -1458.6991021606436        57522.281568524377     
   131.15667083256142      -0.53441077773933321       -1440.5414774949406        58962.823046019315     
   135.99744440575961      -0.53905839493378904       -1420.3892950741667        60383.212341093480     
   141.12866439334968      -0.54503897697246972       -1398.0464176668165        61781.258758760297     
   146.56775758019515      -0.55289716556619484       -1373.3165767750386        63154.575335535337     
   152.33319635825134      -0.56349448032150096       -1346.0344942689803        64500.609829804314     
   158.44456146299092      -0.57827902729094682       -1316.1408298154279        65816.750659619749     
   164.92260847401488      -0.59989226671035456       -1283.8619241205927        67100.612583740338     
   171.78933830570026      -0.63376245265972420       -1250.2226425151748        68350.835226255513     
   179.06807192728678      -0.69321695533138472       -1218.7239986452337        69569.559224900746     
   186.78352956616848      -0.97831836727451160       -1245.2414391667826        70814.800664067530     
   194.49898720505018       -1.3127487259977180       -1282.6529309778691        72097.453595045401     
   202.67737230226479       -1.6101147575825465       -1300.5467178808401        73398.000312926248     
   205.51805912463939       -1.6880775021459473       -1297.8223407936794        74695.822653719923     
   208.52918715635647       -1.6882038350077861       -1299.8382613808385        75995.660915100758     
   211.72098286997658       -1.6884926906081701       -1301.3258600297559        77296.986775130514     
   215.10428632641390       -1.6889499605214096       -1302.3030477194313        78599.289822849940     
   218.69058799023745       -1.6895774737036080       -1302.8069492059085        79902.096772055855     
   222.49206775389041       -1.6903738858002768       -1302.8864537163686        81204.983225772230     
   226.52163630336256       -1.6913360324566482       -1302.5940610860130        82507.577286858243     
   230.79297896580303       -1.6924605493435203       -1301.9785074603615        83809.555794318600     
   235.32060218798992       -1.6938131922241944       -1300.9353509408288        85110.491145259424     
   240.11988280350803       -1.6953230387766822       -1299.6598247255204        86410.150969984941     
   245.20712025595722       -1.6969997863610184       -1298.1499058481611        87708.300875833098     
   250.59959195555336       -1.6988595104011468       -1296.3891617858894        89004.690037618988     
   256.31561195712527       -1.7009257641677396       -1294.3470724249780        90299.037110043966     
   262.37459315879147       -1.7032311031343992       -1291.9781899988072        91591.015300042767     
   268.79711323255765       -1.7058194625722125       -1289.2193412813397        92880.234641324103     
   275.60498451074983       -1.7087500051434044       -1285.9852863904794        94166.219927714585     
   282.82132806563351       -1.7121034120699496       -1282.1609760525746        95448.380903767160     
   290.47065223381026       -1.7159924743998738       -1277.5888369409295        96725.969740708097     
   298.57893585207756       -1.7205806852178152       -1272.0479971115835        97998.017737819682     
   307.17371648744091       -1.7261169604055699       -1265.2194400945446        99263.237177914227     
   316.28418396092610       -1.7330060758417121       -1256.6250304061728        100519.86220832040     
   325.94127948282039       -1.7419676285590935       -1245.5149355970207        101765.37714391742     
   336.17780073602830       -1.7544478978146165       -1230.6471463039934        102996.02429022141     
   347.02851326442874       -1.7739048962953503       -1209.8392922232229        104205.86358244462     
   358.53026854453316       -1.8110162428645402       -1179.2075595389588        105385.07114198359     
   370.72212914144387       -2.0851006378127592       -1132.6922132629086        106517.76335524650     
   382.91398973835459       -2.4446364442714987       -1115.7249185501860        107633.48827379668     
   395.83736197107993       -2.4623944715563297       -1119.3175071910334        108752.80578098772     
   406.17605975726019       -2.4778304075936286       -1121.3295839221846        109874.13536490990     
   417.13507941061130       -2.4940686883933738       -1122.7280461468320        110996.86341105674     
   428.09409906396240       -2.5127714809061126       -1122.7589078388776        112119.62231889562     
   439.05311871731351       -2.5071519608836583       -1128.2772891229665        113247.89960801859     
   450.66967954986569       -2.5187002388295050       -1129.9949480928190        114377.89455611141     
   462.98323403237100       -2.5333079432531616       -1130.6155914215944        115508.51014753300     
   476.03560178382662       -2.5501767173380849       -1130.4389369004618        116638.94908443347     
   489.87111160036960       -2.5699248090168525       -1128.9478494742618        117767.89693390773     
   504.53675200590516       -2.5940088682343689       -1125.0573421696502        118892.95427607738     
   520.08233083577284       -2.6262643175460214       -1116.5347117573433        120009.48898783472     
   536.56064439543252       -2.6816127145371524       -1098.3769742060340        121107.86596204076     
   550.53425429402398       -2.7587656918418491       -1075.3247231732882        122183.19068521404     
   554.19735228728030       -2.8034195945292502       -1047.7813094487010        123230.97199466274     
   558.08023616013202       -2.8334922127817763       -1059.5699594869741        124290.54195414972     
   562.19609306535483       -2.8516691831313148       -1066.1926988977093        125356.73465304743     
   566.55890138489099       -2.8621491739386795       -1069.3265986691083        126426.06125171654     
   571.18347820359941       -2.8684126747985745       -1070.3955783717408        127496.45683008828     
   576.08552963143029       -2.8728731938826413       -1070.4120258225025        128566.86885591078     
   581.28170414493104       -2.8769173574303117       -1069.9657501705494        129636.83460608133     
   586.78964912924187       -2.8812135842159243       -1069.3327590823662        130706.16736516370     
   592.62807081261133       -2.8860446708091909       -1068.6075974897499        131774.77496265344     
   598.81679779698288       -2.8915356320252021       -1067.7983945492165        132842.57335720267     
   605.37684840041675       -2.8977763906713583       -1066.8777446146528        133909.45110181731     
   612.33050204005667       -2.9048810033145105       -1065.8038244642639        134975.25492628157     
   619.70137489807496       -2.9130195760594559       -1064.5254354220965        136039.78036170368     
   627.51450012757437       -2.9224459084012828       -1062.9787208278954        137102.75908253159     
   635.79641287084371       -2.9335366563461407       -1061.0782667217134        138163.83734925330     
   644.57524037870928       -2.9468587565020465       -1058.7014317760413        139222.53878102935     
   653.88079753704676       -2.9657707653119263       -1054.5447067511614        140277.08348778050     
   663.74468812488453       -2.9926784694003494       -1048.7174081504374        141325.80089593094     
   674.20041214799255       -3.0344041496180703       -1039.3631955935457        142365.16409152449     
   685.28347961248710       -3.1102335173306397       -1021.3797621869487        143386.54385371145     
   697.03153112485131       -3.2967367696561278       -973.99277214880021        144360.53662586026     
   701.11210873559708       -3.3534820795645088       -954.06798464977169        145314.60461051002     
   705.43752100298764       -3.3905233449673835       -967.65481705762909        146282.25942756765     
   710.02245800642163       -3.4142677877741949       -975.69998869968310        147257.95941626735     
   714.88249123006165       -3.4296254849709453       -980.19075222661581        148238.15016849397     
   720.03412644712000       -3.4399160993224815       -982.46417002656437        149220.61433852054     
   725.49485977720190       -3.4473144570559491       -983.38810580256404        150204.00244432309     
   731.28323710708867       -3.4532041750582221       -983.50462363830491        151187.50706796139     
   737.41891707676871       -3.4584448816472610       -983.13799827725575        152170.64506623865     
   743.92273784462952       -3.4635652672642547       -982.47223828039466        153153.11730451905     
   750.81678785856195       -3.4688969240730110       -981.60409370117304        154134.72139822022     
   758.12448087333041       -3.4746639747499288       -980.57747555315461        155115.29887377337     
   765.87063546898491       -3.4810419491474280       -979.40448496117722        156094.70335873455     
   774.08155934037870       -3.4881971672058807       -978.07717901320359        157072.78053774775     
   782.78513864405613       -3.4963157744886102       -976.57302853283704        158049.35356628060     
   792.01093270595425       -3.5056301734455779       -974.85587357865438        159024.20943985926     
   801.79027441156620       -3.5164505543038898       -972.87304492668488        159997.08248478593     
   812.15637661951484       -3.5292116339355077       -970.54800115312901        160967.63048593907     
   823.14444495994042       -3.5463018057119364       -966.92363037600808        161934.55411631506     
   834.79179740079155       -3.5695307959934555       -962.40513453796018        162896.95925085302     
   847.13799098809375       -3.6027260053984032       -955.95734234923134        163852.91659320224     
   860.22495619063409       -3.6560952741217743       -945.26315977960053        164798.17975298184     
   874.09713930532689       -3.8066406934315378       -910.36131724021755        165708.54107022207     
   881.19969706004963       -3.8804953284659014       -889.60144038886983        166598.14251061095     
   888.72840828005565       -3.9128990422925440       -902.89133852531518        167501.03384913626     
   896.70884217326204       -3.9104826831384560       -895.18557225862480        168396.21942139490     
   905.16810210006088       -3.9137413520936475       -887.76065128562516        169283.98007268051     
   914.13491762246758       -3.9245788097171825       -882.56499478486023        170166.54506746537     
   923.63974207621868       -3.9401504649313770       -878.73907914420113        171045.28414660957     
   933.71485599719495       -3.9583791316497314       -875.50328468777775        171920.78743129736     
   944.39447675342967       -3.9788828969189001       -872.00083455098400        172792.78826584833     
   955.71487475503852       -4.0013288510013281       -868.60276024136363        173661.39102608970     
   967.71449663674389       -4.0254466182359483       -865.07178335116373        174526.46280944085     
   980.43409583135167       -4.0514326926052364       -861.28975277459620        175387.75256221546     
   993.91687097763588       -4.0798674080135973       -857.12713132113686        176244.87969353661     
   1008.2086126326972       -4.1120970309745637       -852.31835380480436        177097.19804734143     
   1023.3578587870621       -4.1517747810420653       -846.13557810515840        177943.33362544660     
   1039.4160597106888       -4.2109734794233153       -836.16804366571921        178779.50166911233     
   1056.4377526897333       -4.2629590053472928       -830.01307309050298        179609.51474220282     
   1073.4594456687778       -4.2943470114592923       -827.13613175051603        180436.65087395333     
   1091.5024402265649       -4.3168839540679951       -824.87127594552112        181261.52214989884     
   1110.6280144578193       -4.3350973315787078       -822.73961067834034        182084.26176057718     
   1130.6280144578193       -4.3533293889238580       -820.24568270704924        182904.50744328424     
   1150.6280144578193       -4.3747604957894604       -816.97232208509752        183721.47976536932     
   1170.6280144578193       -4.4046740060490759       -812.20471193943138        184533.68447730877     
   1190.6280144578193       -4.4559951101023199       -803.70764605417548        185337.39212336295     
   1206.6280144578193       -4.5310522229133472       -788.02225157790053        186125.41437494085     
   1222.6280144578193       -4.5222935956026875       -797.34758024936787        186922.76195519022     
   1239.5880144578193       -4.5105924699178894       -799.18214848378614        187721.94410367400     
   1257.5656144578193       -4.5202677847914607       -796.13771805268925        188518.08182172669     
   1276.6218704578193       -4.5350964706682042       -793.80208716603920        189311.88390889272     
   1296.6218704578193       -4.5503484462253585       -791.70451039662316        190103.58841928936     
   1316.6218704578193       -4.5649364981560963       -789.61353741343885        190893.20195670280     
   1336.6218704578193       -4.5795954501021079       -787.47710703142377        191680.67906373422     
   1356.6218704578193       -4.5948322826744752       -785.23239543417799        192465.91145916839     
   1376.6218704578193       -4.6110594978156012       -782.82393134778192        193248.73539051617     
   1396.6218704578193       -4.6287306685608636       -780.18379173457527        194028.91918225074     
   1416.6218704578193       -4.6485014194281318       -777.20698355765410        194806.12616580838     
   1436.6218704578193       -4.6715069414913497       -773.70553483533320        195579.83170064373     
   1456.6218704578193       -4.7000273383353672       -769.29326732298978        196349.12496796672     
   1476.6218704578193       -4.7394599407678006       -763.03678782935003        197112.16175579609     
   1492.6218704578193       -4.8006505783796181       -750.14415064401749        197862.30590644010     
   1501.3053904578194       -4.8337453283555689       -741.29791242224110        198603.60381886235     
   1510.5099216578194       -4.8672078796702838       -737.16577289177133        199340.76959175413     
   1520.2667247298193       -4.8970355054780619       -734.53162234478555        200075.30121409890     
