 #              _____________________  _______________________             #
 #              ___  __ \__  __ \_  / / /_  /___  ____/_  ___/             #
 #              __  / / /_  /_/ /  / / /_  __/_  __/  _____ \              #
 #              _  /_/ /_  _, _// /_/ / / /_ _  /___  ____/ /              #
 #              /_____/ /_/ |_| \____/  \__/ /_____/  /____/               #
 #                                                                         #
  
 #        time                      T            heat flux [W.L-2]   in    x              directions   cumulative flux
 #-----------------------------------------------------------------------------------------------

   0.0000000000000000        4.8296000000000001       -1.9843533829023114        1.9843533829023114     
   1.0000000000000000        4.8303580460419866       -2.2181187009176506        4.2024720838199618     
   1.8999999999999999        4.8310049112787556       -2.4119637593965062        6.6144358432164676     
   2.7100000000000000        4.8315604625918960       -2.5740832167734196        9.1885190599898863     
   3.5200000000000000        4.8320912541670280       -2.7248332100144714        11.913352270004358     
   4.3300000000000001        4.8325990071910043       -2.8651052600997526        14.778457530104111     
   5.1400000000000006        4.8330853084359466       -2.9957175334372845        17.774175063541396     
   5.9500000000000011        4.8335516212943173       -3.1174210743028810        20.891596137844278     
   6.7600000000000016        4.8339992958779607       -3.2309054950984701        24.122501632942747     
   7.5700000000000021        4.8344295782624824       -3.3368041724580944        27.459305805400842     
   8.3800000000000026        4.8348436189510959       -3.4356989929062216        30.895004798307063     
   9.1900000000000031        4.8352424806255403       -3.5281246878876948        34.423129486194760     
   10.000000000000004        4.8356271452456774       -3.6145727944141250        38.037702280608883     
   10.810000000000004        4.8359985213950889       -3.6954956312700191        41.733197911878904     
   11.668600000000005        4.8363782435316969       -3.7755579321661714        45.508755844045076     
   12.578716000000005        4.8367661767335894       -3.8545362555497804        49.363292099594858     
   13.543438960000005        4.8371621932859572       -3.9322148238817647        53.295506923476623     
   14.508161920000004        4.8375440981323692       -4.0043793267025176        57.299886250179142     
   15.530768257600005        4.8379342291556151       -4.0752405006820656        61.375126750861206     
   16.614730975456006        4.8383325243315003       -4.1446256167322257        65.519752367593426     
   17.763731456383365        4.8387389402387502       -4.2123776799412935        69.732130047534724     
   18.912731937310724        4.8391307992221932       -4.2749057868327673        74.007035834367485     
   20.130672447093726        4.8395311149742453       -4.3359203633610663        78.342956197728554     
   21.421689387463708        4.8399399188430028       -4.3953160168376941        82.738272214566251     
   22.790167344255888        4.8403572649140187       -4.4530081153683554        87.191280329934614     
   24.158645301048068        4.8407599293516670       -4.5060182415753536        91.697298571509961     
   25.609231935247781        4.8411716304433812       -4.5575568119285697        96.254855383438525     
   27.146853767499476        4.8415924813518485       -4.6075903178094331        100.86244570124796     
   28.684475599751170        4.8419990518302036       -4.6535751832121992        105.51602088446016     
   30.314354741937969        4.8424152988497040       -4.6983354386836913        110.21435632314385     
   32.042026632655976        4.8428413647142152       -4.7418854181812371        114.95624174132509     
   33.769698523373982        4.8432534838049754       -4.7820414848663404        119.73828322619143     
   35.601030727535068        4.8436759110330145       -4.8213080965324053        124.55959132272383     
   37.432362931696154        4.8440850119237240       -4.8577219007421801        129.41731322346601     
   39.373575068106902        4.8445048120527181       -4.8935742015929895        134.31088742505901     
   41.314787204517650        4.8449117446744756       -4.9270806152905591        139.23796804034956     
   43.372472069113044        4.8453296395314123       -4.9603778667971037        144.19834590714666     
   45.430156933708439        4.8457349476783955       -4.9918234181775167        149.19016932532418     
   47.611302890179559        4.8461513127385034       -5.0234641588062008        154.21363348413038     
   49.792448846650679        4.8465551677884831       -5.0537641380797478        159.26739762221013     
   52.104463560510062        4.8469699485720650       -5.0847556455993459        164.35215326780948     
   54.416478274369446        4.8473720500490431       -5.1149723035756693        169.46712557138517     
   56.867213871060393        4.8477846360584982       -5.1465229339371827        174.61364850532235     
   59.317949467751340        4.8481840621696417       -5.1779667631017139        179.79161526842407     
   61.915729200243746        4.8485930991339767       -5.2116025726726578        185.00321784109673     
   64.513508932736158        4.8489880866648969       -5.2459571189784411        190.24917496007518     
   67.111288665228571        4.8493692136267272       -5.2814353935682981        195.53061035364348     
   69.864935181670518        4.8497577238790370       -5.3207795938965985        200.85138994754007     
   72.618581698112465        4.8501307154837443       -5.3623309200905389        206.21372086763060     
   75.537447005540926        4.8505084627265322       -5.4094086651523021        211.62312953278291     
   78.456312312969388        4.8508682644124406       -5.4600682967856784        217.08319782956858     
   81.375177620397849        4.8512096731217165       -5.5148519808269452        222.59804981039551     
   84.294042927826311        4.8515321247201015       -5.5742942938081610        228.17234410420366     
   87.212908235254773        4.8518349468271555       -5.6389204089699998        233.81126451317365     
   90.131773542683234        4.8521173670519504       -5.7092440029622802        239.52050851613595     
   93.050638850111696        4.8523785211052228       -5.7857650035355777        245.30627351967152     
   95.969504157540158        4.8526174608567043       -5.8689672757873916        251.17524079545890     
   98.888369464968619        4.8528331623751635       -5.9593163259822415        257.13455712144116     
   101.80723477239708        4.8530245339647706       -6.0572570866481437        263.19181420808928     
   104.72610007982554        4.8531904241933139       -6.1632118337029933        269.35502604179226     
   107.64496538725400        4.8533296298944686       -6.2775782753077793        275.63260431710006     
   110.56383069468247        4.8534409041168560       -6.4007278425180356        282.03333215961811     
   113.48269600211093        4.8535229623684462       -6.5330048082360666        288.56633696785417     
   116.57669322798510        4.8535755555088436       -6.6838460003885407        295.25018296824271     
   119.85633028741174        4.8535907729187473       -6.8560746802700852        302.10625764851278     
   123.33274557040396        4.8535590872784296       -7.0529082191622763        309.15916586767503     
   127.01774577037571        4.8534690599307320       -7.2779946421241783        316.43716050979918     
   130.92384598234577        4.8533070034972789       -7.5354464678539204        323.97260697765313     
   135.06431220703405        4.8530565995473118       -7.8298695842717700        331.80247656192489     
   139.45320640520362        4.8526984704748974       -8.1663844322539134        339.96886099417878     
   144.10543425526336        4.8522097066390142       -8.5506363341760174        348.51949732835482     
   149.03679577632670        4.8515633670807823       -8.9887860147892731        357.50828334314411     
   153.96815729739004        4.8507835032159283       -9.4574712682387894        366.96575461138292     
   158.89951881845337        4.8498652539142375       -9.9561919754581787        376.92194658684110     
   163.83088033951671        4.8488041907949588       -10.484277110224166        387.40622369706529     
   168.76224186058005        4.8475963405471010       -11.040904024833758        398.44712772189905     
   173.69360338164338        4.8462381994668355       -11.625118121120577        410.07224584301963     
   178.62496490270672        4.8447267407319892       -12.235852648479561        422.30809849149921     
   183.55632642377006        4.8430594149622888       -12.871948381371769        435.18004687287100     
   188.48768794483340        4.8412341447359895       -13.532172725618066        448.71221959848907     
   193.41904946589673        4.8392493138722150       -14.215237748552219        462.92745734704130     
   198.35041098696007        4.8371037111972282       -14.919833334810786        477.84729068185209     
   203.57765419928720        4.8346479071755954       -15.689273474186344        493.53656415603842     
   209.11853200435394        4.8318404815162550       -16.528306561203941        510.06487071724234     
   214.99186247772468        4.8286353921877057       -17.441709668676097        527.50658038591848     
   221.21759277949769        4.8249817811666968       -18.434183521502337        545.94076390742077     
   227.44332308127071        4.8210739175400850       -19.448317094514469        565.38908100193521     
   233.66905338304372        4.8169145544347547       -20.481552071701202        585.87063307363644     
   239.89478368481673        4.8125070871443931       -21.531418616442487        607.40205169007891     
   246.12051398658974        4.8078554813290229       -22.595544200440425        629.99759589051928     
   252.34624428836275        4.8029642050485428       -23.671659931253103        653.66925582177237     
   258.57197459013577        4.7978381647889288       -24.757604931676923        678.42686075344932     
   264.79770489190878        4.7924826455194376       -25.851329140073631        704.27818989352295     
   271.02343519368179        4.7869032547649368       -26.950894776119558        731.22908466964248     
   277.24916549545480        4.7811058706550611       -28.054476643754242        759.28356131339672     
   283.47489579722782        4.7750965938994776       -29.160361408355659        788.44392272175241     
   289.70062609900083        4.7688817036242179       -30.266945974073760        818.71086869582621     
   295.92635640077384        4.7624676169835993       -31.372735088213588        850.08360378403984     
   302.15208670254685        4.7558608524355837       -32.476338304095805        882.55994208813559     
   308.37781700431987        4.7490679965384270       -33.576466436740624        916.13640852487617     
   314.60354730609288        4.7420956740962676       -34.671927644230998        950.80833616910718     
   320.82927760786589        4.7349505214542820       -35.761623260894964        986.56995943000220     
   327.05500790963890        4.7276391627226637       -36.844543496968022        1023.4145029269703     
   333.28073821141192        4.7201681886944842       -37.919763104215562        1061.3342660311857     
   339.50646851318493        4.7125441382159980       -38.986437089570622        1100.3207031207564     
   345.73219881495794        4.7047734817691209       -40.043796540658349        1140.3644996614148     
   351.95792911673095        4.6968623829495471       -41.091179023846173        1181.4556786852611     
   358.55720323661035        4.6883265259552882       -42.189423992282933        1223.6451026775439     
   365.55243380368250        4.6791186066928230       -43.339325706443930        1266.9844283839880     
   372.96737820477898        4.6691886933254834       -44.541418802716073        1311.5258471867041     
   380.82721926994122        4.6584846760521499       -45.795868219037231        1357.3217154057413     
   387.90107622858727        4.6487147106060833       -46.908379968729911        1404.2300953744711     
   394.97493318723332        4.6388165137050192       -48.003974167654249        1452.2340695421253     
   402.04879014587937        4.6287979499250005       -49.082308448621262        1501.3163779907466     
   409.12264710452541        4.6186666138376529       -50.143127954118569        1551.4595059448652     
   416.19650406317146        4.6084298135637232       -51.186266595344676        1602.6457725402099     
   423.27036102181751        4.5980945550558143       -52.211645724383537        1654.8574182645934     
   430.34421798046355        4.5876675282857704       -53.219269382882416        1708.0766876474759     
   436.71068924324499        4.5782135394306058       -54.111797480590354        1762.1884851280663     
   442.44051337974827        4.5696515224803882       -54.903582908888971        1817.0920680369552     
   448.51412696444174        4.5605197164671250       -55.730022414152174        1872.8220904511074     
   454.95215736421682        4.5507812047578451       -56.591757706016288        1929.4138481571238     
   461.77646958797840        4.5403970612715474       -57.489344515930902        1986.9031926730547     
   469.01024054516569        4.5293263087395612       -58.423237320841039        2045.3264299938958     
   476.67803775978422        4.5175258901421360       -59.393770900669558        2104.7202008945656     
   484.80590280727989        4.5049506572931008       -60.401138837867485        2165.1213397324332     
   493.42143975762531        4.4915540395935905       -61.445284272090269        2226.5666240045234     
   502.03697670797072        4.4780969908553097       -62.466342981962960        2289.0329669864864     
   510.65251365831614        4.4645861391328081       -63.464774509125668        2352.4977414956120     
   519.26805060866150        4.4510277348210492       -64.441028017323134        2416.9387695129353     
   527.88358755900686        4.4374276763011107       -65.395548118574865        2482.3343176315102     
   536.49912450935221        4.4237915285496348       -66.328781031800830        2548.6630986633108     
   545.11466145969757        4.4101245366072064       -67.241179561247819        2615.9042782245588     
   553.73019841004293        4.3964316359365476       -68.133206148941866        2684.0374843735008     
   562.34573536038829        4.3827174614528781       -69.005333847741412        2753.0428182212422     
   570.96127231073365        4.3689863567376293       -69.858045237739532        2822.9008634589818     
   579.57680926107901        4.3552423868865073       -70.691826310853202        2893.5926897698350     
   588.19234621142436        4.3414893555138150       -71.507158647164545        2965.0998484169995     
   596.80788316176972        4.3277308257968770       -72.304510955698461        3037.4043593726979     
   605.42342011211508        4.3139701439151104       -73.084332097876270        3110.4886914705739     
   614.03895706246044        4.3002104630405835       -73.847046413030341        3184.3357378836045     
   622.65449401280580        4.2864547661697143       -74.593051552525367        3258.9287894361296     
   631.27003096315116        4.2727058865464542       -75.322718527159935        3334.2515079632894     
   639.88556791349652        4.2589665247680131       -76.036393699835571        3410.2879016631250     
   648.50110486384187        4.2452392618478516       -76.734402583694745        3487.0223042468197     
   657.11664181418723        4.2315262045110247       -77.417060417332266        3564.4393646641520     
   666.24911098155337        4.2170098861391239       -78.123826742212160        3642.5631914063642     
   675.38158014891951        4.2025149429623925       -78.814113598131797        3721.3773050044961     
   685.06199746632763        4.1871781850014358       -79.527687991551801        3800.9049929960479     
   694.74241478373574        4.1718711411905138       -80.223690908457613        3881.1286839045056     
   705.00365714018835        4.1556825341706958       -80.942269199612326        3962.0709531041180     
   715.88057403802804        4.1385672398311186       -81.683128229306661        4043.7540813334244     
   727.41010594973818        4.1204785555463355       -82.445916849682177        4126.1999981831068     
   739.63140977615092        4.1013681906234591       -83.230220716041330        4209.4302188991478     
   752.58599183214835        4.0811879511733675       -84.035005041031354        4293.4652239401794     
   765.54057388814579        4.0610868301501046       -84.814431032522009        4378.2796549727018     
   778.49515594414322        4.0410681681853031       -85.569165318733226        4463.8488202914350     
   791.44973800014066        4.0211353923779596       -86.299632090174953        4550.1484523816098     
   804.40432005613809        4.0012899846341234       -87.006655945697204        4637.1551083273071     
   818.13617703549539        3.9803605922728109       -87.728908511564470        4724.8840168388715     
   831.86803401485270        3.9595404415247080       -88.424869715462350        4813.3088865543341     
   845.59989099421000        3.9388336290889248       -89.095078456149110        4902.4039650104833     
   859.33174797356730        3.9182438617011957       -89.740227225057851        4992.1441922355407     
   873.06360495292461        3.8977744230540341       -90.361077113966232        5082.5052693495072     
   886.79546193228191        3.8774282461690164       -90.958357757141314        5173.4636271066483     
   900.52731891163921        3.8572080235822908       -91.532712625157274        5264.9963397318061     
   914.25917589099652        3.8371163025898740       -92.084691371708558        5357.0810311035148     
   927.99103287035382        3.8171555386112885       -92.614773916386028        5449.6958050199009     
   941.72288984971112        3.7973281048133742       -93.123406314160874        5542.8192113340619     
   955.45474682906843        3.7776362683129578       -93.611035219427990        5636.4302465534902     
   969.18660380842573        3.7580821465278378       -94.078134674863875        5730.5083812283538     
   982.91846078778303        3.7386676553709144       -94.525223880683654        5825.0336051090371     
   996.65031776714034        3.7193908015483155       -94.953532660513659        5919.9871377695508     
   1011.2060861652591        3.6991170262021100       -95.386520527468051        6015.3736582970187     
   1026.6352006672651        3.6778124849611213       -95.822007543346231        6111.1956658403651     
   1042.0643151692709        3.6566855699807150       -96.236512321435995        6207.4321781618009     
   1058.4191765413971        3.6345012653349400       -96.651908266014388        6304.0840864278152     
   1074.7740379135232        3.6125217753951264       -97.045708245927884        6401.1297946737432     
   1091.1288992856494        3.5907398452361443       -97.420387331724811        6498.5501820054678     
   1108.4650523401033        3.5678747326701039       -97.797761163494783        6596.3479431689630     
   1126.8413745778244        3.5438890241244114       -98.178140269955222        6694.5260834389182     
   1145.2176968155454        3.5201404791385658       -98.542160298399892        6793.0682437373180     
   1163.5940190532665        3.4966214527981307       -98.891366286458208        6891.9596100237759     
