 #              _____________________  _______________________             #
 #              ___  __ \__  __ \_  / / /_  /___  ____/_  ___/             #
 #              __  / / /_  /_/ /  / / /_  __/_  __/  _____ \              #
 #              _  /_/ /_  _, _// /_/ / / /_ _  /___  ____/ /              #
 #              /_____/ /_/ |_| \____/  \__/ /_____/  /____/               #
 #                                                                         #
  
 #        time                      T            heat flux [W.L-2]   in    x              directions   cumulative flux
 #-----------------------------------------------------------------------------------------------

   0.0000000000000000        5.0949000000000000        4.9673742996023096        4.9673742996023096     
   1.0000000000000000        5.0951846345555021        4.8796012862333198        9.8469755858356294     
   1.8999999999999999        5.0954275230758563        4.8068177319998977        14.653793317835527     
   2.7100000000000000        5.0956361249251643        4.7459462789384226        19.399739596773948     
   3.5200000000000000        5.0958354300428663        4.6893433142562984        24.089082911030246     
   4.3300000000000001        5.0960260844677565        4.6366736123799761        28.725756523410222     
   5.1400000000000006        5.0962086837027210        4.5876294100941104        33.313385933504335     
   5.9500000000000011        5.0963837768432612        4.5419280672057880        37.855314000710123     
   6.7600000000000016        5.0965518703556869        4.4993099337356277        42.354623934445755     
   7.5700000000000021        5.0967134315357807        4.4595364048723454        46.814160339318100     
   8.3800000000000026        5.0968688916759159        4.4223881466590873        51.236548485977188     
   9.1900000000000031        5.0970186489661415        4.3876634769587861        55.624211962935973     
   10.000000000000004        5.0971630711523561        4.3551768876912105        59.979388850627181     
   10.810000000000004        5.0973024981563464        4.3247576544033386        64.304146505030516     
   11.668600000000005        5.0974450502180888        4.2946499936928744        68.598796498723388     
   12.578716000000005        5.0975906731932668        4.2649344910278435        72.863730989751232     
   13.543438960000005        5.0977393145170735        4.2356879422479867        77.099418931999224     
   14.508161920000004        5.0978826394210532        4.2084948819178445        81.307913813917068     
   15.530768257600005        5.0980290249898532        4.1817642479245887        85.489678061841659     
   16.614730975456006        5.0981784381871584        4.1555543804081907        89.645232442249849     
   17.763731456383365        5.0983308499817603        4.1299163173284361        93.775148759578286     
   18.912731937310724        5.0984777463415529        4.1062056420565494        97.881354401634837     
   20.130672447093726        5.0986277390576493        4.0830082969395756        101.96436269857442     
   21.421689387463708        5.0987808157657586        4.0603528194504666        106.02471551802489     
   22.790167344255888        5.0989369660327890        4.0382582455729406        110.06297376359782     
   24.158645301048068        5.0990874800913684        4.0178623024792621        114.08083606607708     
   25.609231935247781        5.0992411897048013        3.9979208952665330        118.07875696134361     
   27.146853767499476        5.0993980842512538        3.9784311610520260        122.05718812239564     
   28.684475599751170        5.0995493965198904        3.9603838519750831        126.01757197437072     
   30.314354741937969        5.0997039877641086        3.9426634576180670        129.96023543198879     
   32.042026632655976        5.0998618258438349        3.9252493459851610        133.88548477797394     
   33.769698523373982        5.1000140597432218        3.9090217481530765        137.79450652612701     
   35.601030727535068        5.1001695674281287        3.8929687078469435        141.68747523397394     
   37.432362931696154        5.1003195940204389        3.8779074178474766        145.56538265182141     
   39.373575068106902        5.1004728531156047        3.8628998404145074        149.42828249223592     
   41.314787204517650        5.1006206813182686        3.8487180481728949        153.27700054040881     
   43.372472069113044        5.1007716247092771        3.8344822585769660        157.11148279898578     
   45.430156933708439        5.1009171162613818        3.8209346138797078        160.93241741286548     
   47.611302890179559        5.1010655238575833        3.8072400157187611        164.73965742858422     
   49.792448846650679        5.1012083914435866        3.7941231088897074        168.53378053747394     
   52.104463560510062        5.1013538904179443        3.7807820350635866        172.31456257253754     
   54.416478274369446        5.1014936999154772        3.7679336709872664        176.08249624352482     
   56.867213871060393        5.1016357690864336        3.7548000569736995        179.83729630049851     
   59.317949467751340        5.1017719456984096        3.7420974548371300        183.57939375533564     
   61.915729200243746        5.1019099237141408        3.7290644892952574        187.30845824463091     
   64.513508932736158        5.1020417613473530        3.7164214913578819        191.02487973598880     
   67.111288665228571        5.1021676681935269        3.7041348646477430        194.72901460063656     
   69.864935181670518        5.1022946947479397        3.6914793615320467        198.42049396216862     
   72.618581698112465        5.1024155004528300        3.6791668313720804        202.09966079354069     
   75.537447005540926        5.1025368015903769        3.6664766201460735        205.76613741368678     
   78.456312312969388        5.1026515734736702        3.6541282438666096        209.42026565755339     
   81.375177620397849        5.1027600277665996        3.6421060740549680        213.06237173160835     
   84.294042927826311        5.1028623660924710        3.6303973025701128        216.69276903417847     
   87.212908235254773        5.1029587813501207        3.6189912665858102        220.31176030076429     
   90.131773542683234        5.1030494587313200        3.6078789267631342        223.91963922752743     
   93.050638850111696        5.1031345765084408        3.5970524652499569        227.51669169277739     
   95.969504157540158        5.1032143066460591        3.5865049773192368        231.10319667009662     
   98.888369464968619        5.1032888152782805        3.5762302360466580        234.67942690614328     
   101.80723477239708        5.1033582630841821        3.5662225138484480        238.24564941999174     
   104.72610007982554        5.1034228055864395        3.5564764481744855        241.80212586816623     
   107.64496538725400        5.1034825933924575        3.5469869413727366        245.34911280953895     
   110.56383069468247        5.1035377723928530        3.5377490869027848        248.88686189644173     
   113.48269600211093        5.1035884840857664        3.5287581264089201        252.41562002285065     
   116.57669322798510        5.1036373816196487        3.5194995460927680        255.93511956894341     
   119.85633028741174        5.1036839429348619        3.5099843820146881        259.44510395095807     
   123.33274557040396        5.1037275910236453        3.5002265421411138        262.94533049309916     
   127.01774577037571        5.1037676911194296        3.4902430344908315        266.43557352759001     
   130.92384598234577        5.1038035480387567        3.4800541862911638        269.91562771388118     
   135.06431220703405        5.1038344037081353        3.4696838498448286        273.38531156372602     
   139.45320640520362        5.1038594349039812        3.4591595905396511        276.84447115426565     
   144.10543425526336        5.1038777512277811        3.4485128521379123        280.29298400640357     
   149.03679577632670        5.1038883931174199        3.4377791175067518        283.73076312391032     
   153.96815729739004        5.1038906956771912        3.4275774963608798        287.15834062027119     
   158.89951881845337        5.1038850687094444        3.4178887734423893        290.57622939371356     
   163.83088033951671        5.1038718992029999        3.4086942223779420        293.98492361609152     
   168.76224186058005        5.1038515525273382        3.3999756271853911        297.38489924327689     
   173.69360338164338        5.1038243735903777        3.3917152974408245        300.77661454071773     
   178.62496490270672        5.1037906879559403        3.3838960776701232        304.16051061838783     
   183.55632642377006        5.1037508029179071        3.3765013517014095        307.53701197008922     
   188.48768794483340        5.1037050085290110        3.3695150427421354        310.90652701283136     
   193.41904946589673        5.1036535785829908        3.3629216099222501        314.26944862275360     
   198.35041098696007        5.1035967715775579        3.3567060048472617        317.62615462760084     
   203.57765419928720        5.1035308041188250        3.3505248118016255        320.97667943940246     
   209.11853200435394        5.1034547392059100        3.3444107432975025        324.32109018269995     
   214.99186247772468        5.1033675723524903        3.3383994941822843        327.65948967688223     
   221.21759277949769        5.1032682288896876        3.3325297924840154        330.99201946936626     
   227.44332308127071        5.1031623110043185        3.3271378785486281        334.31915734791488     
   233.66905338304372        5.1030501655665272        3.3222005030711856        337.64135785098608     
   239.89478368481673        5.1029321159820826        3.3176954988670180        340.95905334985309     
   246.12051398658974        5.1028084639091578        3.3136017367241317        344.27265508657723     
   252.34624428836275        5.1026794908462820        3.3098990819641947        347.58255416854144     
   258.57197459013577        5.1025454596005746        3.3065683519585267        350.88912252049994     
   264.79770489190878        5.1024066156449068        3.3035912747898331        354.19271379528976     
   271.02343519368179        5.1022631883722438        3.3009504491678641        357.49366424445765     
   277.24916549545480        5.1021153922549258        3.2986293056651164        360.79229355012274     
   283.47489579722782        5.1019634279161767        3.2966120693075260        364.08890561943025     
   289.70062609900083        5.1018074831205800        3.2948837235350630        367.38378934296531     
   295.92635640077384        5.1016477336898767        3.2934299755180065        370.67721931848331     
   302.15208670254685        5.1014843443498776        3.2922372228140730        373.96945654129740     
   308.37781700431987        5.1013174695139050        3.2912925213425472        377.26074906263995     
   314.60354730609288        5.1011472540077296        3.2905835546433142        380.55133261728326     
   320.82927760786589        5.1009738337405883        3.2900986043856135        383.84143122166887     
   327.05500790963890        5.1007973363265089        3.2898265220915683        387.13125774376044     
   333.28073821141192        5.1006178816598045        3.2897567020415224        390.42101444580197     
   339.50646851318493        5.1004355824483145        3.2898790553225679        393.71089350112453     
   345.73219881495794        5.1002505447076745        3.2901839849773875        397.00107748610191     
   351.95792911673095        5.1000628680190374        3.2906623424730941        400.29173982857498     
   358.55720323661035        5.0998610773645803        3.2913539780595609        403.58309380663451     
   365.55243380368250        5.0996440975499038        3.2922828897699721        406.87537669640449     
   372.96737820477898        5.0994107744845030        3.2934744778555443        410.16885117426006     
   380.82721926994122        5.0991598700786120        3.2949555213008530        413.46380669556089     
   387.90107622858727        5.0989312591143552        3.2964549414567204        416.76026163701761     
   394.97493318723332        5.0986999493610261        3.2981113487324785        420.05837298575011     
   402.04879014587937        5.0984660330738309        3.2999157692670580        423.35828875501716     
   409.12264710452541        5.0982295969953340        3.3018597199657926        426.66014847498298     
   416.19650406317146        5.0979907227627903        3.3039351806379207        429.96408365562087     
   423.27036102181751        5.0977494872836093        3.3061345676445035        433.27021822326537     
   430.34421798046355        5.0975059630815442        3.3084507089841977        436.57866893224957     
   436.71068924324499        5.0972849876179289        3.3106248347068479        439.88929376695643     
   442.44051337974827        5.0970846834756296        3.3126506537280602        443.20194442068447     
   448.51412696444174        5.0968707984020245        3.3148717410445081        446.51681616172897     
   454.95215736421682        5.0966423692893477        3.3173044684316113        449.83412063016056     
   461.77646958797840        5.0963983627777294        3.3199661882876588        453.15408681844821     
   469.01024054516569        5.0961376701544676        3.3228752336401466        456.47696205208837     
   476.67803775978422        5.0958591018981512        3.3260509080343135        459.80301296012266     
   484.80590280727989        5.0955613818460419        3.3295134639113546        463.13252642403404     
   493.42143975762531        5.0952431413202692        3.3332840685347969        466.46581049256883     
   502.03697670797072        5.0949223199714657        3.3371475096065732        469.80295800217539     
   510.65251365831614        5.0945989904103097        3.3410967945373740        473.14405479671274     
   519.26805060866150        5.0942732213981419        3.3451253622461627        476.48918015895890     
   527.88358755900686        5.0939450781595692        3.3492270535178497        479.83840721247674     
   536.49912450935221        5.0936146226671433        3.3533960834559493        483.19180329593269     
   545.11466145969757        5.0932819139006664        3.3576270158974575        486.54943031183012     
   553.73019841004293        5.0929470080834225        3.3619147396467621        489.91134505147687     
   562.34573536038829        5.0926099588974738        3.3662544464011988        493.27759949787804     
   570.96127231073365        5.0922708176798777        3.3706416102453898        496.64824110812344     
   579.57680926107901        5.0919296336015742        3.3750719686036392        500.02331307672711     
   588.19234621142436        5.0915864538304918        3.3795415045393957        503.40285458126652     
   596.80788316176972        5.0912413236802854        3.3840464303150570        506.78690101158156     
   605.42342011211508        5.0908942867460061        3.3885831720997057        510.17548418368125     
   614.03895706246044        5.0905453850278306        3.3931483557617899        513.56863253944300     
   622.65449401280580        5.0901946590439477        3.3977387936459102        516.96637133308889     
   631.27003096315116        5.0898421479335383        3.4023514722763819        520.36872280536522     
   639.88556791349652        5.0894878895507203        3.4069835409042324        523.77570634626943     
   648.50110486384187        5.0891319205502583        3.4116323008470992        527.18733864711658     
   657.11664181418723        5.0887742761953012        3.4162952024492603        530.60363384956588     
   666.24911098155337        5.0883933323517230        3.4212508746470256        534.02488472421294     
   675.38158014891951        5.0880105868580943        3.4262168360407839        537.45110156025373     
   685.06199746632763        5.0876028988577140        3.4314892395329388        540.88259079978673     
   694.74241478373574        5.0871932769925081        3.4367672524305917        544.31935805221735     
   705.00365714018835        5.0867569567313264        3.4423649935442393        547.76172304576164     
   715.88057403802804        5.0862921333930053        3.4482983855409568        551.21002143130261     
   727.41010594973818        5.0857968780659384        3.4545834725655946        554.66460490386817     
   739.63140977615092        5.0852691295242209        3.4612362812448740        558.12584118511302     
   752.58599183214835        5.0847066862444326        3.4682726417088450        561.59411382682185     
   765.54057388814579        5.0841413006573255        3.4752886446294169        565.06940247145133     
   778.49515594414322        5.0835730580249194        3.4822798193229820        568.55168229077435     
   791.44973800014066        5.0830020409951526        3.4892419481026571        572.04092423887698     
   804.40432005613809        5.0824283293072980        3.4961710440385851        575.53709528291552     
   818.13617703549539        5.0818172605946099        3.5034742617200596        579.04056954463556     
   831.86803401485270        5.0812033466500521        3.5107315893030302        582.55130113393864     
   845.59989099421000        5.0805866742431061        3.5179389537173624        586.06924008765600     
   859.33174797356730        5.0799673274320627        3.5250924565770321        589.59433254423300     
   873.06360495292461        5.0793453876331629        3.5321883517305919        593.12652089596361     
   886.79546193228191        5.0787209336778769        3.5392230246529492        596.66574392061659     
   900.52731891163921        5.0780940418599636        3.5461929735361242        600.21193689415270     
   914.25917589099652        5.0774647859737509        3.5530947919504370        603.76503168610316     
   927.99103287035382        5.0768332373449523        3.5599251529682143        607.32495683907132     
   941.72288984971112        5.0761994648551552        3.5666807946381729        610.89163763370948     
   955.45474682906843        5.0755635349610184        3.5733585067353149        614.46499614044478     
   969.18660380842573        5.0749255117090524        3.5799551187010374        618.04495125914582     
   982.91846078778303        5.0742854567468534        3.5864674886971892        621.63141874784299     
   996.65031776714034        5.0736434291653998        3.5928924739893544        625.22431122183229     
   1011.2060861652591        5.0729607313083136        3.5996010813191250        628.82391230315147     
   1026.6352006672651        5.0722347342161207        3.6065933504318703        632.43050565358340     
   1042.0643151692709        5.0715064723337395        3.6134622854415190        636.04396793902492     
   1058.4191765413971        5.0707320523520760        3.6205995438680443        639.66456748289295     
   1074.7740379135232        5.0699552470875400        3.6275876214191962        643.29215510431220     
   1091.1288992856494        5.0691761290674586        3.6344210873176865        646.92657619162992     
   1108.4650523401033        5.0683477458380271        3.6414843857957950        650.56806057742574     
   1126.8413745778244        5.0674669182769412        3.6487612626551296        654.21682184008091     
   1145.2176968155454        5.0665834300093948        3.6558199298020333        657.87264176988299     
   1163.5940190532665        5.0656973541948336        3.6626523303618339        661.53529410024487     
