 #              _____________________  _______________________             #
 #              ___  __ \__  __ \_  / / /_  /___  ____/_  ___/             #
 #              __  / / /_  /_/ /  / / /_  __/_  __/  _____ \              #
 #              _  /_/ /_  _, _// /_/ / / /_ _  /___  ____/ /              #
 #              /_____/ /_/ |_| \____/  \__/ /_____/  /____/               #
 #                                                                         #
  
 #        time                      T            heat flux [W.L-2]   in    x              directions   cumulative flux
 #-----------------------------------------------------------------------------------------------

   0.0000000000000000        5.0949000000000000        4.9675885992045625        4.9675885992045625     
   1.0000000000000000        5.0951846559901206        4.8798016609362946        9.8473902601408572     
   1.8999999999999999        5.0954275616840530        4.8070079105799950        14.654398170720853     
   2.7100000000000000        5.0956361775386316        4.7461288653068978        19.400527036027750     
   3.5200000000000000        5.0958354954346312        4.6895196306977924        24.090046666725542     
   4.3300000000000001        5.0960261616007871        4.6368447660942573        28.726891432819798     
   5.1400000000000006        5.0962087717008604        4.5877963266258934        33.314687759445690     
   5.9500000000000011        5.0963838749664108        4.5420915186226365        37.856779278068323     
   6.7600000000000016        5.0965519779786224        4.4994705624059295        42.356249840474256     
   7.5700000000000021        5.0967135481300714        4.4596947435413714        46.815944584015625     
   8.3800000000000026        5.0968690167945212        4.4225446354182045        51.238489219433831     
   9.1900000000000031        5.0970187822302675        4.3878184775967632        55.626307697030597     
   10.000000000000004        5.0971632122402761        4.3553306958426727        59.981638392873272     
   10.810000000000004        5.0973026469367353        4.3249105076799195        64.306548900553196     
   11.668600000000005        5.0974452068701241        4.2948020601250319        68.601350960678232     
   12.578716000000005        5.0975908376064485        4.2650859343869341        72.866436895065164     
   13.488832000000006        5.0977313583119894        4.2373841270849697        77.103821022150129     
   14.453554960000005        5.0978749725537815        4.2100840991931827        81.313905121343311     
   15.476161297600006        5.0980216433018715        4.1832505740252648        85.497155695368576     
   16.560124015456008        5.0981713369455663        4.1569422070449855        89.654097902413568     
   17.709124496383367        5.0983240238594796        4.1312102438630358        93.785308146276606     
   18.858124977310727        5.0984711755631524        4.1074151665586465        97.892723312835258     
   20.076065487093729        5.0986214189709234        4.0841377477033536        101.97686106053861     
   21.367082427463711        5.0987747414218205        4.0614066898820340        106.03826775042064     
   22.735560384255891        5.0989311321817352        4.0392410498515288        110.07750880027217     
   24.104038341048071        5.0990818691468407        4.0187821502398702        114.09629095051204     
   25.554624975247783        5.0992357975243721        3.9987818431937665        118.09507279370581     
   27.092246807499478        5.0993929065603334        3.9792371757811198        122.07430996948693     
   28.629868639751173        5.0995444182079437        3.9611416198501250        126.03545158933706     
   30.259747781937971        5.0996992058350372        3.9433764295176199        129.97882801885467     
   31.987419672655975        5.0998572372754261        3.9259208016971630        133.90474882055184     
   33.715091563373981        5.1000096518808755        3.9096569766426619        137.81440579719450     
   35.546423767535067        5.1001653384181758        3.8935703584166461        141.70797615561114     
   37.377755971696153        5.1003155331152614        3.8784797597020804        145.58645591531322     
   39.318968108106901        5.1004689595101578        3.8634449558252175        149.44990087113845     
   41.260180244517649        5.1006169458879569        3.8492393322476799        153.29914020338614     
   43.317865109113043        5.1007680475639310        3.8349812942929140        157.13412149767905     
   45.375549973708438        5.1009136896234057        3.8214140599248436        160.95553555760389     
   47.556695930179558        5.1010622486101500        3.8077010250626739        164.76323658266656     
   49.737841886650678        5.1012052608943188        3.7945677312619170        168.55780431392847     
   52.049856600510061        5.1013509060796629        3.7812110618385524        172.33901537576702     
   54.361871314369445        5.1014908559388621        3.7683486585586206        176.10736403432563     
   56.812606911060392        5.1016330674732977        3.7552015005674062        179.86256553489304     
   59.263342507751339        5.1017693812242717        3.7424865202429838        183.60505205513601     
   61.861122240243745        5.1019074987367032        3.7294414363902333        187.33449349152625     
   64.458901972736157        5.1020394708039607        3.7167871681259115        191.05128065965215     
   67.056681705228570        5.1021655076954460        3.7044899776879334        194.75577063734008     
   69.810328221670517        5.1022926670208433        3.6918239058971936        198.44759454323727     
   72.563974738112464        5.1024136012859866        3.6795013359556767        202.12709587919295     
   75.482840045540925        5.1025350337818178        3.6668009767618210        205.79389685595478     
   78.401705352969387        5.1026499326681840        3.6544428668115496        209.44833972276632     
   81.320570660397848        5.1027585098617321        3.6424113161981633        213.09075103896447     
   84.239435967826310        5.1028609672053635        3.6306934692350308        216.72144450819951     
   87.158301275254772        5.1029574977911842        3.6192786262680765        220.34072313446759     
   90.077166582683233        5.1030482869832436        3.6081577193870631        223.94888085385466     
   92.996031890111695        5.1031335132093689        3.5973229085056468        227.54620376236031     
   95.914897197540157        5.1032133485760216        3.5867672715138030        231.13297103387410     
   98.833762504968618        5.1032879596255194        3.5764845665499032        234.70945560042401     
   101.92775973084279        5.1033613681106385        3.5658847514413154        238.27534035186531     
   105.20739679026943        5.1034330194232043        3.5549783097376451        241.83031866160294     
   108.68381207326165        5.1035022982166165        3.5437790429410980        245.37409770454406     
   112.36881227323340        5.1035685255324514        3.5323043456507968        248.90640205019486     
   116.27491248520347        5.1036309561833741        3.5205754637440814        252.42697751393894     
   120.41537870989174        5.1036887764353525        3.5086177300511348        255.93559524399006     
   124.80427290806131        5.1037411020252774        3.4964607721657051        259.43205601615580     
   129.45650075812105        5.1037869763236259        3.4841387521861003        262.91619476834188     
   134.10872860818080        5.1038237170853709        3.4723632640038451        266.38855803234571     
   138.76095645824054        5.1038517581297214        3.4611167964921798        269.84967482883792     
   143.41318430830029        5.1038715110595128        3.4503821115958551        273.30005694043376     
   148.06541215836003        5.1038833662266425        3.4401422720179293        276.74019921245167     
   152.71764000841978        5.1038876936856283        3.4303806696621861        280.17057988211388     
   157.36986785847952        5.1038848441331357        3.4210810518863415        283.59166093400023     
   162.02209570853927        5.1038751498302766        3.4122275440284273        287.00388847802867     
   166.67432355859901        5.1038589255042357        3.4038046675522726        290.40769314558094     
   171.32655140865876        5.1038364692259304        3.3957973537151265        293.80349049929606     
   175.97877925871850        5.1038080632608240        3.3881909529893290        297.19168145228537     
   180.63100710877825        5.1037739747541941        3.3809711825364142        300.57265263482179     
   185.56236862984159        5.1037317566363205        3.3737363101526823        303.94638894497450     
   190.78961184216871        5.1036805057817443        3.3665182475891746        307.31290719256367     
   196.33048964723545        5.1036192527922513        3.3593521232675339        310.67225931583118     
   202.20382012060620        5.1035469596010392        3.3522763137189351        314.02453562955014     
   208.42955042237921        5.1034625170961077        3.3453324352190297        317.36986806476915     
   215.02882454225858        5.1033647431713884        3.3385653673612334        320.70843343213039     
   221.62809866213797        5.1032591787659634        3.3323612892374639        324.04079472136783     
   228.22737278201737        5.1031462644187453        3.3266913077265334        327.36748602909438     
   234.82664690189677        5.1030264090539381        3.3215279423101078        330.68901397140451     
   241.42592102177616        5.1028999924239855        3.3168450659169886        334.00585903732150     
   248.02519514165556        5.1027673673604435        3.3126178463034037        337.31847688362490     
   254.62446926153495        5.1026288618465943        3.3088226884864085        340.62729957211133     
   261.22374338141435        5.1024847809251073        3.3054371786051244        343.93273675071646     
   267.82301750129375        5.1023354084534489        3.3024400294321712        347.23517678014861     
   274.42229162117314        5.1021810087190289        3.2998110276933552        350.53498780784196     
   281.02156574105254        5.1020218279252898        3.2975309832651090        353.83251879110708     
   287.62083986093194        5.1018580955592086        3.2955816802925750        357.12810047139965     
   294.22011398081133        5.1016900256498934        3.2939458302315447        360.42204630163121     
   300.81938810069073        5.1015178179272294        3.2926070267849443        363.71465332841615     
   307.41866222057013        5.1013416588888107        3.2915497027126515        367.00620303112879     
   314.01793634044952        5.1011617222936927        3.2907590783479046        370.29696210947668     
   321.01316690752168        5.1009669388604282        3.2902040593895299        373.58716616886619     
   328.42811130861816        5.1007561307847862        3.2899150888799342        376.87708125774611     
   336.28795237378040        5.1005280365202221        3.2899242391118459        380.16700549685794     
   344.14779343894264        5.1002955218539050        3.2902292149970358        383.45723471185499     
   352.00763450410489        5.1000587887897186        3.2908115859186351        386.74804629777361     
   359.86747556926713        5.0998180247211193        3.2916540423593381        390.03970034013292     
   367.72731663442937        5.0995734036602141        3.2927403275988758        393.33244066773182     
   374.80117359307542        5.0993502392844050        3.2939042866536097        396.62634495438544     
   381.87503055172147        5.0991241807316072        3.2952439656222010        399.92158892000765     
   388.94888751036751        5.0988953323118640        3.2967493635099476        403.21833828351760     
   396.02274446901356        5.0986637919208686        3.2984110282619450        406.51674931177956     
   403.09660142765961        5.0984296515184475        3.3002200258018752        409.81696933758144     
   410.17045838630565        5.0981929975692415        3.3021679107227406        413.11913724830418     
   416.53692964908709        5.0979780327112376        3.3040276530231267        416.42316490132731     
   422.90340091186852        5.0977611480793898        3.3059884774173383        419.72915337874463     
   428.63322504837180        5.0975644361687715        3.3078312197848474        423.03698459852950     
   434.36304918487508        5.0973662459715730        3.3097482590484626        426.34673285757799     
   440.09287332137836        5.0971666132325097        3.3117360553541553        429.65846891293216     
   445.82269745788165        5.0969655720874396        3.3137912250832851        432.97226013801543     
   451.55252159438493        5.0967631551587109        3.3159105335154280        436.28817067153085     
   457.28234573088821        5.0965593936444913        3.3180908878243183        439.60626155935518     
   463.01216986739149        5.0963543174024650        3.3203293303975721        442.92659088975273     
   468.74199400389477        5.0961479550282656        3.3226230324705863        446.24921392222330     
   474.47181814039806        5.0959403339289908        3.3249692880551178        449.57418321027842     
   480.20164227690134        5.0957314803921205        3.3273655081529432        452.90154871843134     
   485.93146641340462        5.0955214196501304        3.3298092152463905        456.23135793367771     
   491.66129054990790        5.0953101759410879        3.3322980380479663        459.56365597172567     
   497.39111468641119        5.0950977725654854        3.3348297064952068        462.89848567822088     
   503.12093882291447        5.0948842319395471        3.3374020469921932        466.23588772521305     
   508.85076295941775        5.0946695756452502        3.3400129778731245        469.57590070308618     
   514.58058709592103        5.0944538244772435        3.3426605050874021        472.91856120817357     
   520.31041123242437        5.0942369984868936        3.3453427180898330        476.26390392626342     
   526.04023536892771        5.0940191170236195        3.3480577859283187        479.61196171219171     
   531.77005950543105        5.0938001987736898        3.3508039535253618        482.96276566571709     
   537.49988364193439        5.0935802617966495        3.3535795381330495        486.31634520385012     
   543.22970777843773        5.0933593235595147        3.3563829259663054        489.67272812981645     
   548.95953191494107        5.0931374009688870        3.3592125689940886        493.03194069881056     
   554.68935605144441        5.0929145104011182        3.3620669818882343        496.39400768069879     
   560.41918018794775        5.0926906677306256        3.3649447391211931        499.75895241981999     
   566.14900432445108        5.0924658883565010        3.3678444722044674        503.12679689202446     
   571.87882846095442        5.0922401872274996        3.3707648670598411        506.49756175908431     
   577.60865259745776        5.0920135788655285        3.3737046615166149        509.87126642060093     
   583.33847673396110        5.0917860773876953        3.3766626429368283        513.24792906353775     
   589.06830087046444        5.0915576965270466        3.3796376459447353        516.62756670948249     
   594.79812500696778        5.0913284496520355        3.3826285502766393        520.01019525975914     
   600.52794914347112        5.0910983497848310        3.3856342787253788        523.39582953848458     
   606.25777327997446        5.0908674096185180        3.3886537951896258        526.78448333367419     
   611.98759741647780        5.0906356415332690        3.3916861028135981        530.17616943648784     
   617.71742155298114        5.0904030575301142        3.3947302365268923        533.57089967301476     
   623.79103513767461        5.0901556158545240        3.3979692136477291        536.96886888666245     
   630.22906553744974        5.0898923297695546        3.4014149788437780        540.37028386550628     
   637.05337776121132        5.0896121441601485        3.4050800500878515        543.77536391559408     
   644.28714871839861        5.0893139306966209        3.4089775143660916        547.18434142996023     
   651.95494593301714        5.0889964826767313        3.4131210164455164        550.59746244640576     
   660.08281098051282        5.0886585095318253        3.4175247393598127        554.01498718576556     
   668.69834793085818        5.0882986309834708        3.4222033750820868        557.43719056084763     
   677.83081709822432        5.0879153708382763        3.4271720836335415        560.86436264448116     
   687.51123441563243        5.0875071504103806        3.4324464385809801        564.29680908306216     
   697.77247677208504        5.0870722815633052        3.4380423565594556        567.73485143962159     
   708.64939366992473        5.0866089593655825        3.4439760080429718        571.17882744766462     
   720.17892558163487        5.0861152543578063        3.4502637060687333        574.62909115373338     
   732.40022940804761        5.0855891044322634        3.4569217689821263        578.08601292271555     
   745.35481146404504        5.0850283061071533        3.4639664270629336        581.54997934977848     
   758.30939352004248        5.0844645177781063        3.4709932453687826        585.02097259514721     
   771.26397557603991        5.0838978259498679        3.4779976301298636        588.49897022527705     
   784.21855763203735        5.0833283144640315        3.4849752521160400        591.98394547739304     
   797.17313968803478        5.0827560646273184        3.4919220197204366        595.47586749711343     
   810.12772174403221        5.0821811553218446        3.4988340542389404        598.97470155135238     
   823.08230380002965        5.0816036630995560        3.5057076671240681        602.48040921847644     
   836.03688585602708        5.0810236622628100        3.5125393390397472        605.99294855751623     
   848.99146791202452        5.0804412249327511        3.5193257005629581        609.51227425807917     
   861.94604996802195        5.0798564211070749        3.5260635143816597        613.03833777246086     
   874.90063202401939        5.0792693187084872        3.5327496588906016        616.57108743135143     
   887.85521408001682        5.0786799836251015        3.5393811130671606        620.11046854441861     
   900.80979613601426        5.0780884797438182        3.5459549425200660        623.65642348693871     
   913.76437819201169        5.0774948700680431        3.5524681897572785        627.20889167669600     
   927.49623517136899        5.0768633480312539        3.5593009310888384        630.76819260778484     
   942.05200356948774        5.0761914369621923        3.5664596358294887        634.33465224361430     
   957.48111807149360        5.0754764984044254        3.5739489248901033        637.90860116850445     
   973.83597944361986        5.0747157197100581        3.5817712036604790        641.49037237216487     
   990.19084081574613        5.0739521009091142        3.5894716602187016        645.07984403238356     
   1004.9102160506598        5.0732626166942518        3.5962994113312448        648.67614344371486     
   1020.5127537996682        5.0725293394934692        3.6034170184455632        652.27956046216048     
   1037.0514438136172        5.0717494332087227        3.6108215835119593        655.89038204567248     
   1054.5824552284030        5.0709198732212108        3.6185066138048123        659.50888865947729     
