 #              _____________________  _______________________             #
 #              ___  __ \__  __ \_  / / /_  /___  ____/_  ___/             #
 #              __  / / /_  /_/ /  / / /_  __/_  __/  _____ \              #
 #              _  /_/ /_  _, _// /_/ / / /_ _  /___  ____/ /              #
 #              /_____/ /_/ |_| \____/  \__/ /_____/  /____/               #
 #                                                                         #
  
 #        time                      T            heat flux [W.L-2]   in    x              directions   cumulative flux
 #-----------------------------------------------------------------------------------------------

   0.0000000000000000        4.9545000000000003        6.9459472568559146        6.9459472568559146     
   1.0000000000000000        4.9541206860903779        7.0629571855713476        14.008904442427262     
   1.8999999999999999        4.9537970135541221        7.1599809725181327        21.168885414945393     
   2.7100000000000000        4.9535190378772489        7.2411218411662883        28.410007256111683     
   3.5200000000000000        4.9532534562419457        7.3165684679294865        35.726575724041169     
   4.3300000000000001        4.9529994063595764        7.3867667877412675        43.113342511782434     
   5.1400000000000006        4.9527560931396115        7.4521257840498354        50.565468295832268     
   5.9500000000000011        4.9525227831281047        7.5130206245702675        58.078488920402535     
   6.7600000000000016        4.9522987994179726        7.5697955289052681        65.648284449307809     
   7.5700000000000021        4.9520835169907338        7.6227663909614805        73.271050840269282     
   8.3800000000000026        4.9518763584528100        7.6722231771360594        80.943274017405344     
   9.1900000000000031        4.9516767901326588        7.7184321194565744        88.661706136861923     
   10.000000000000004        4.9514843185078972        7.7616377212308727        96.423343858092792     
   10.810000000000004        4.9512984859487466        7.8020648442835157        104.22540870237631     
   11.668600000000005        4.9511084630344238        7.8420399863425301        112.06744868871884     
   12.578716000000005        4.9509143113185354        7.8814453255783938        119.94889401429724     
   13.488832000000006        4.9507269266553564        7.9181242334516524        127.86701824774889     
   14.453554960000005        4.9505353544991317        7.9542007562080643        135.82121900395694     
   15.476161297600006        4.9503396198331382        7.9895720173744813        143.81079102133143     
   16.560124015456008        4.9501397350498921        8.0241397441274547        151.83493076545889     
   17.709124496383367        4.9499356971349480        8.0578113493607120        159.89274211481961     
   18.858124977310727        4.9497388704961223        8.0887962126002950        167.98153832741991     
   20.076065487093729        4.9495376641689113        8.1189207139297075        176.10045904134961     
   21.367082427463711        4.9493320139261430        8.1481119508510744        184.24857099220068     
   22.735560384255891        4.9491218302299034        8.1763042617595172        192.42487525396021     
   24.104038341048071        4.9489187652536186        8.2020354669341167        200.62691072089433     
   25.554624975247783        4.9487107865460400        8.2268462969484109        208.85375701784275     
   27.092246807499478        4.9484977268675872        8.2506885464417863        217.10444556428453     
   28.629868639751173        4.9482913777605075        8.2723448735259630        225.37679043781048     
   30.259747781937971        4.9480794620169988        8.2931243175739979        233.66991475538447     
   31.987419672655975        4.9478617236046123        8.3129923455865971        241.98290710097106     
   33.715091563373981        4.9476501998239035        8.3309501353480826        250.31385723631914     
   35.546423767535067        4.9474322540178584        8.3480928536777608        258.66195008999688     
   37.377755971696153        4.9472199457096968        8.3635618847194060        267.02551197471627     
   39.318968108106901        4.9470005677061817        8.3783022080734142        275.40381418278969     
   41.260180244517649        4.9467862695541376        8.3915784701918685        283.79539265298155     
   43.317865109113043        4.9465642007181181        8.4042032437870517        292.19959589676859     
   45.375549973708438        4.9463466705031358        8.4155497582049659        300.61514565497356     
   47.556695930179558        4.9461206099979025        8.4263143294715697        309.04145998444511     
   49.737841886650678        4.9458985606641299        8.4359659451941802        317.47742592963931     
   52.049856600510061        4.9456671577618332        8.4450993266268348        325.92252525626617     
   54.361871314369445        4.9454392506135889        8.4532678248599762        334.37579308112612     
   56.812606911060392        4.9452010986136363        8.4609779108497136        342.83677099197581     
   59.263342507751339        4.9449659384369982        8.4678569356015210        351.30462792757731     
   61.861122240243745        4.9447195708765577        8.4743353306036635        359.77896325818097     
   64.458901972736157        4.9444757031102045        8.4801047323628591        368.25906799054383     
   67.056681705228570        4.9442339809166205        8.4852558728227248        376.74432386336656     
   69.810328221670517        4.9439797959069613        8.4901148655293053        385.23443872889584     
   72.563974738112464        4.9437273289367809        8.4944539966317425        393.72889272552760     
   75.482840045540925        4.9434613089673025        8.4985530638724267        402.22744578940001     
   78.401705352969387        4.9431965937494065        8.5022244398545137        410.72967022925451     
   81.320570660397848        4.9429329308307448        8.5055313638181289        419.23520159307265     
   84.239435967826310        4.9426701011667227        8.5085289693302801        427.74373056240290     
   87.158301275254772        4.9424079149477587        8.5112654075627461        436.25499596996565     
   90.077166582683233        4.9421462079854761        8.5137827906748242        444.76877876064049     
   92.996031890111695        4.9418848385725251        8.5161179889137699        453.28489674955426     
   95.914897197540157        4.9416236847460837        8.5183033078663293        461.80320005742061     
   98.833762504968618        4.9413626419047665        8.5203670433753249        470.32356710079591     
   101.92775973084279        4.9410859556552449        8.5224473650088353        478.84601446580473     
   105.20739679026943        4.9407925850944485        8.5245621995412613        487.37057666534599     
   108.68381207326165        4.9404814169583169        8.5267332236814770        495.89730988902750     
   112.36881227323340        4.9401512623222219        8.5289861185883105        504.42629600761580     
   116.27491248520347        4.9398008535564637        8.5313507903826569        512.95764679799845     
   120.41537870989174        4.9394288416064054        8.5338615466770431        521.49150834467548     
   124.80427290806131        4.9390337936691484        8.5365572182780021        530.02806556295343     
   129.45650075812105        4.9386141918677087        8.5394813691421945        538.56754693209564     
   134.10872860818080        4.9381937149381363        8.5424942797018861        547.11004121179758     
   138.76095645824054        4.9377723587800757        8.5456131588738291        555.65565437067141     
   143.41318430830029        4.9373501351044000        8.5488510853764339        564.20450545604785     
   148.06541215836003        4.9369270682907933        8.5522176862599473        572.75672314230781     
   152.71764000841978        4.9365031927812417        8.5557197036026000        581.31244284591037     
   157.36986785847952        4.9360785509181726        8.5593614691043989        589.87180431501474     
   162.02209570853927        4.9356531911519417        8.5631453025843136        598.43494961759905     
   166.67432355859901        4.9352271665554461        8.5670718474171466        607.00202146501624     
   171.32655140865876        4.9348005335943617        8.5711403535645125        615.57316181858073     
   175.97877925871850        4.9343733511103718        8.5753489169194488        624.14851073550017     
   180.63100710877825        4.9339456790627967        8.5796944545301699        632.72820519003039     
   185.56236862984159        4.9334918701350343        8.5844504874175698        641.31265567744799     
   190.78961184216871        4.9330103844163231        8.5896539742152687        649.90230965166324     
   196.33048964723545        4.9324996091126128        8.5953434894415306        658.49765314110482     
   202.20382012060620        4.9319578584040187        8.6015589030633475        667.09921204416821     
   208.42955042237921        4.9313833738323112        8.6083409676569875        675.70755301182521     
   215.02882454225858        4.9307743252945295        8.6157313067939985        684.32328431861924     
   221.62809866213797        4.9301653374799939        8.6233053932550057        692.94658971187425     
   228.22737278201737        4.9295565597639062        8.6310459943142330        701.57763570618852     
   234.82664690189677        4.9289481345819608        8.6389359761149898        710.21657168230354     
   241.42592102177616        4.9283401972724130        8.6469584517494873        718.86353013405301     
   248.02519514165556        4.9277328760320174        8.6550968975623181        727.51862703161532     
   254.62446926153495        4.9271262919594916        8.6633352433516713        736.18196227496696     
   261.22374338141435        4.9265205591656338        8.6716579410789478        744.85362021604590     
   267.82301750129375        4.9259157849335073        8.6800500158896625        753.53367023193550     
   274.42229162117314        4.9253120699155284        8.6884971025511373        762.22216733448658     
   281.02156574105254        4.9247095083570080        8.6969854698973474        770.91915280438388     
   287.62083986093194        4.9241081883378417        8.7055020354132981        779.62465483979713     
   294.22011398081133        4.9235081920258006        8.7140343717454858        788.33868921154260     
   300.81938810069073        4.9229095959362379        8.7225707066235909        797.06125991816623     
   307.41866222057013        4.9223124711941351        8.7310999174354489        805.79235983560170     
   314.01793634044952        4.9217168860245124        8.7396110223511290        814.53197085795284     
   321.01316690752168        4.9210873660360566        8.7486012859046092        823.28057214385740     
   328.42811130861816        4.9204221766842133        8.7580826051883314        832.03865474904569     
   336.28795237378040        4.9197195193545262        8.7680648999330302        840.80671964897874     
   344.14779343894264        4.9190193859708433        8.7779655093935567        849.58468515837228     
   352.00763450410489        4.9183218464509020        8.7877723851998208        858.37245754357207     
   359.86747556926713        4.9176269636974457        8.7974745064316640        867.16993205000369     
   367.72731663442937        4.9169347940818442        8.8070618268151275        875.97699387681882     
   374.80117359307542        4.9163140761475432        8.8155907104012705        884.79258458722006     
   381.87503055172147        4.9156956262556504        8.8240137524030775        893.61659833962312     
   388.94888751036751        4.9150794742142470        8.8323253621213524        902.44892370174443     
   396.02274446901356        4.9144656465473950        8.8405204662054988        911.28944416794991     
   403.09660142765961        4.9138541667122277        8.8485944796783098        920.13803864762826     
   410.17045838630565        4.9132450553039977        8.8565432777921753        928.99458192542045     
   416.53692964908709        4.9126987867114433        8.8635930501958686        937.85817497561629     
   422.90340091186852        4.9121544613891936        8.8705362265489640        946.72871120216530     
   428.63322504837180        4.9116661500747520        8.8766971240676007        955.60540832623292     
   434.36304918487508        4.9111794266960223        8.8827686025940213        964.48817692882699     
   440.09287332137836        4.9106942968002603        8.8887493555201385        973.37692628434718     
   445.82269745788165        4.9102107650741447        8.8946382198355298        982.27156450418272     
   451.55252159438493        4.9097288353931781        8.9004341684404569        991.17199867262320     
   457.28234573088821        4.9092485108685384        8.9061363027585134        1000.0781349753818     
   463.01216986739149        4.9087697938914943        8.9117438456519444        1008.9898788210337     
   468.74199400389477        4.9082926861755167        8.9172561346233259        1017.9071349556571     
   474.47181814039806        4.9078171887961508        8.9226726153120399        1026.8298075709690     
   480.20164227690134        4.9073433022288118        8.9279928352677835        1035.7578004062368     
   485.93146641340462        4.9068710263845494        8.9332164380016756        1044.6910168442384     
   491.66129054990790        4.9064003606439286        8.9383431573022492        1053.6293600015406     
   497.39111468641119        4.9059313038890773        8.9433728118149176        1062.5727328133555     
   503.12093882291447        4.9054638545340303        8.9483052998694070        1071.5210381132249     
   508.85076295941775        4.9049980105534248        8.9531405945534424        1080.4741787077783     
   514.58058709592103        4.9045337695096514        8.9578787390230676        1089.4320574468013     
   520.31041123242437        4.9040711285785283        8.9625198420378176        1098.3945772888392     
   526.04023536892771        4.9036100845735904        8.9670640737135638        1107.3616413625527     
   531.77005950543105        4.9031506339690356        8.9715116614920394        1116.3331530240448     
   537.49988364193439        4.9026927729214371        8.9758628863048848        1125.3090159103497     
   543.22970777843773        4.9022364972902501        8.9801180789399400        1134.2891339892897     
   548.95953191494107        4.9017818026572044        8.9842776165871570        1143.2734116058768     
   554.68935605144441        4.9013286843446249        8.9883419195672083        1152.2617535254440     
   560.41918018794775        4.9008771374327447        8.9923114482301347        1161.2540649736741     
   566.14900432445108        4.9004271567760638        8.9961867000169491        1170.2502516736911     
   571.87882846095442        4.8999787370187970        8.9999682066802169        1179.2502198803713     
   577.60865259745776        4.8995318726094768        9.0036565316486996        1188.2538764120200     
   583.33847673396110        4.8990865578147336        9.0072522675419577        1197.2611286795618     
   589.06830087046444        4.8986427867323243        9.0107560338139976        1206.2718847133758     
   594.79812500696778        4.8982005533034236        9.0141684745330739        1215.2860531879089     
   600.52794914347112        4.8977598513242384        9.0174902562783963        1224.3035434441874     
   606.25777327997446        4.8973206744569682        9.0207220661613992        1233.3242655103488     
   611.98759741647780        4.8968830162401575        9.0238646099534545        1242.3481301203024     
   617.71742155298114        4.8964468731405839        9.0269184214006035        1251.3750485417029     
   623.79103513767461        4.8959862526439446        9.0300568488847190        1260.4051053905876     
   630.22906553744974        4.8954998854993690        9.0332738507316570        1269.4383792413191     
   637.05337776121132        4.8949864489339561        9.0365618763563127        1278.4749411176754     
   644.28714871839861        4.8944445658337399        9.0399116794414276        1287.5148527971169     
   651.95494593301714        4.8938728040940607        9.0433121161747998        1296.5581649132916     
   660.08281098051282        4.8932696761630678        9.0467499284278023        1305.6049148417194     
   668.69834793085818        4.8926336388031251        9.0502095119635353        1314.6551243536828     
   677.83081709822432        4.8919630930956934        9.0536726700315064        1323.7087970237144     
   687.51123441563243        4.8912563847158577        9.0571183529746442        1332.7659153766890     
   697.77247677208504        4.8905118045027969        9.0605223848303673        1341.8264377615194     
   708.64939366992473        4.8897275893523116        9.0638571782572264        1350.8902949397766     
   720.17892558163487        4.8889019234567073        9.0670914395324740        1359.9573863793091     
   732.40022940804761        4.8880329399160614        9.0701898657870146        1369.0275762450960     
   745.35481146404504        4.8871187083246816        9.0731134777907503        1378.1006897228867     
   758.30939352004248        4.8862112957979722        9.0756849084635842        1387.1763746313502     
   771.26397557603991        4.8853106169293055        9.0779132275419627        1396.2542878588922     
   784.21855763203735        4.8844165867588263        9.0798073656502520        1405.3340952245424     
   797.17313968803478        4.8835291208646545        9.0813761026004816        1414.4154713271428     
   810.12772174403221        4.8826481354418192        9.0826280579454615        1423.4980993850882     
   823.08230380002965        4.8817735473703507        9.0835716834996987        1432.5816710685879     
   836.03688585602708        4.8809052742737364        9.0842152575816417        1441.6658863261696     
   848.99146791202452        4.8800432345688858        9.0845668807338154        1450.7504532069033     
   861.94604996802195        4.8791873475085357        9.0846344727372710        1459.8350876796405     
   874.90063202401939        4.8783375332169872        9.0844257707325529        1468.9195134503732     
   887.85521408001682        4.8774937127199216        9.0839483282964046        1478.0034617786696     
   900.80979613601426        4.8766558079689455        9.0832095153375008        1487.0866712940071     
   913.76437819201169        4.8758237543405132        9.0822161547127909        1496.1688874487199     
   927.49623517136899        4.8749482476118029        9.0808859388122247        1505.2497733875321     
   942.05200356948774        4.8740273739004412        9.0791740238631178        1514.3289474113951     
   957.48111807149360        4.8730591718419385        9.0770313147581714        1523.4059787261533     
   973.83597944361986        4.8720416163609865        9.0744046742483118        1532.4803834004017     
   990.19084081574613        4.8710326743488066        9.0714345406030663        1541.5518179410049     
   1004.9102160506598        4.8701315152550428        9.0684915969115067        1550.6203095379165     
   1020.5127537996682        4.8691838900878466        9.0650793669036887        1559.6853889048202     
   1037.0514438136172        4.8681878096759128        9.0611450825732014        1568.7465339873934     
   1054.5824552284030        4.8671412206425604        9.0566318408350970        1577.8031658282284     
