 #              _____________________  _______________________             #
 #              ___  __ \__  __ \_  / / /_  /___  ____/_  ___/             #
 #              __  / / /_  /_/ /  / / /_  __/_  __/  _____ \              #
 #              _  /_/ /_  _, _// /_/ / / /_ _  /___  ____/ /              #
 #              /_____/ /_/ |_| \____/  \__/ /_____/  /____/               #
 #                                                                         #
  
 #        time                      T            heat flux [W.L-2]   in    x              directions   cumulative flux
 #-----------------------------------------------------------------------------------------------

   0.0000000000000000        20.000000000000000       -0.0000000000000000        0.0000000000000000     
   1.0000000000000000        19.999999999999996       -4.5190517994350991E-012   4.5190517994350991E-012
   1.9540000000000002        19.999999999999989       -4.6320280944272379E-011   5.0839332743707476E-011
   2.8641160000000001        19.999999999999972       -2.2482282702338625E-010   2.7566215976709372E-010
   3.8288389600000006        19.999999999999883       -9.3883301135776520E-010   1.2144951711248590E-009
   4.8514452976000007        19.999999999999535       -3.5248604038933736E-009   4.7393555750182326E-009
   5.9354080154560007        19.999999999998270       -1.1983395612760514E-008   1.6722751187778748E-008
   7.0844084963833609        19.999999999994124       -3.7386115569352752E-008   5.4108866757131499E-008
   8.3023490061663630        19.999999999981441       -1.0824823729359177E-007   1.6235710405072328E-007
   9.5933659465363448        19.999999999945128       -2.9372594128512391E-007   4.5608304533584716E-007
   10.961843903328527        19.999999999846935       -7.5305932124532983E-007   1.2091423665811770E-006
   12.412430537528239        19.999999999594422       -1.8365788598850910E-006   3.0457212264662680E-006
   13.950052369779934        19.999999998973497       -4.2844138703092896E-006   7.3301350967755575E-006
   15.579931511966731        19.999999997506816       -9.6043228528438871E-006   1.6934457949619446E-005
   17.307603402684734        19.999999994166195       -2.0767708977430762E-005   3.7702166927050212E-005
   19.138935606845820        19.999999986806113       -4.3454835770893805E-005   8.1157002697944023E-005
   21.080147743256571        19.999999971078793       -8.8221662878681153E-005   1.6937866557662518E-004
   23.137832607851966        19.999999938411506       -1.7417241671069202E-004   3.4355108228731720E-004
   25.318978564323086        19.999999872330058       -3.3502842708739818E-004   6.7857950937471538E-004
   27.630993278182473        19.999999741937494       -6.2891296084182171E-004   1.3074924702165371E-003
   30.081728874873424        19.999999490616275       -1.1537522365451900E-003   2.4612447067617269E-003
   32.679508607365833        19.999999016899196       -2.0709472238597173E-003   4.5321919306214441E-003
   35.433155123807786        19.999998142799033       -3.6409094266952684E-003   8.1731013573167130E-003
   38.352020431236255        19.999996562519712       -6.2751619190606379E-003   1.4448263276377351E-002
   41.446017657110431        19.999993761189508       -1.0610931307840634E-002   2.5059194584217986E-002
   44.725654716537058        19.999988888857107       -1.7615391382158736E-002   4.2674585966376723E-002
   48.202069999529286        19.999980569305272       -2.8727792226203246E-002   7.1402378192579968E-002
   51.887070199501046        19.999966616184192       -4.6048374269545764E-002  0.11745075246212573     
   55.793170411471110        19.999943620625199       -7.2582910440895876E-002  0.19003366290302159     
   59.933636636159378        19.999906365184810      -0.11255057856112745       0.30258424146414903     
   64.322530834328944        19.999847009332633      -0.17176027214374323       0.47434451360789226     
   68.974758684388689        19.999753982771896      -0.25805610227718423       0.73240061588507643     
   73.906120205452012        19.999610516122161      -0.38182656026445017        1.1142271761495266     
   79.133363417779137        19.999392735730389      -0.55656367010564767        1.6707908462551742     
   84.674241222845893        19.999067252676408      -0.79944884864235866        2.4702396948975327     
   90.547571696216650        19.998588187466297       -1.1319318645694150        3.6021715594669477     
   96.773301997989648        19.997893593178503       -1.5802593615158431        5.1824309209827906     
   103.37257611786903        19.996901271905244       -2.1759012814139496        7.3583322023967401     
   110.36780668494117        19.995504022018324       -2.9558187058455938        10.314150908242334     
   117.78275108603765        19.993564405403582       -3.9625165252179899        14.276667433460325     
   125.64259215119992        19.990909181054043       -5.2438299710120804        19.520497404472405     
   133.97402368027193        19.987323609489788       -6.8524058016391436        26.372903206111548     
   142.80534110108826        19.982545885502098       -8.8448564148805620        35.217759620992112     
   152.16653756715357        19.976261998422530       -11.280587119678170        46.498346740670286     
   162.08940582118279        19.968101343678459       -14.220321242971197        60.718667983641481     
   172.60764617045376        19.957633412354902       -17.724372185200526        78.443040168842003     
   183.75698094068099        19.944365864474605       -21.850733342558783        100.29377351140079     
   195.57527579712186        19.927744246922174       -26.653073607399506        126.94684711880029     
   208.10266834494917        19.907153551160476       -32.178736162745508        159.12558328154580     
   221.38170444564611        19.881921724157625       -38.466840565685402        197.59242384723120     
   235.45748271238489        19.851325154858166       -45.546582662893989        243.13900651012520     
   250.37780767512800        19.814596065364093       -53.435814561069400        296.57482107119461     
   266.19335213563568        19.770931647773047       -62.139969222489817        358.71479029368442     
   282.95782926377382        19.719504710358436       -71.651373210800315        430.36616350448475     
   300.72817501960026        19.659475534908367       -81.948968727838732        512.31513223232344     
   319.56474152077629        19.590004603184962       -92.998444266179249        605.31357649850270     
   339.53150201202288        19.510265823577097       -104.75275489722108        710.06633139572375     
   345.07971846197330        19.487647812181358       -108.01896634973293        818.08529774545673     
   347.48862088734694        19.477741597949677       -109.43699564096391        927.52229338642064     
   347.83133734248474        19.476330495742523       -109.63873072774918        1037.1610241141698     
   348.19461678493082        19.474832769447652       -109.85256847923227        1147.0135925934021     
   348.57969299392363        19.473242990901284       -110.07923485838468        1257.0928274517869     
   348.98787377545602        19.471555370495370       -110.31949853804485        1367.4123259898317     
   349.42054540388034        19.469763739087789       -110.57417402571774        1477.9865000155494     
   349.87917733001012        19.467861521405599       -110.84412434960716        1588.8306243651566     
   350.36532717170769        19.465841707408664       -111.13026389275036        1699.9608882579071     
   350.88064600390709        19.463696821442085       -111.43356138163786        1811.3944496395450     
   351.42688396603847        19.461418888990373       -111.75504303562612        1923.1494926751711     
   352.00589620589773        19.458999400829864       -112.09579588335092        2035.2452885585221     
   352.61964918014854        19.456429274357614       -112.45697125210029        2147.7022598106223     
   353.27022733285440        19.453698811855563       -112.83978843576330        2260.5420482463855     
   353.62330910789092        19.452215144658432       -113.04754202103878        2373.5895902674242     
   353.99757578942967        19.450640427968860       -113.26774928302540        2486.8573395504495     
   354.39429847186074        19.448968959996098       -113.50115626602985        2600.3584958164793     
   354.81482451523766        19.447194659785975       -113.74855251869178        2714.1070483351709     
   355.26058212121717        19.445311048289241       -114.01077450261317        2828.1178228377839     
   355.73308518355549        19.443311220533015       -114.28870832156855        2942.4065311593527     
   356.23393842963407        19.441187815666947       -114.58329259889854        3056.9898237582511     
   356.76484287047737        19.438932984706355       -114.89552150920076        3171.8853452674521     
   357.32760157777130        19.436538355778872       -115.22644797041171        3287.1117932378638     
   357.92412580750283        19.433994996664136       -115.57718700216859        3402.6889802400324     
   358.55644149101829        19.431293374397477       -115.94891925611901        3518.6378994961515     
   359.22669611554466        19.428423311688562       -116.34289472345807        3634.9807942196094     
   359.93716601754261        19.425373939884263       -116.76043662456796        3751.7412308441772     
   360.32275224275492        19.423716907643033       -116.98702341203351        3868.7282542562107     
   360.73147364147997        19.421958103122478       -117.22717907708029        3985.9554333332908     
   361.16471832412856        19.420091142117318       -117.48171487478407        4103.4371482080751     
   361.62395768773604        19.418109216281120       -117.75148898852331        4221.1886371965984     
   362.11075141315996        19.416005070471257       -118.03741033741061        4339.2260475340090     
   362.62675276210933        19.413770971423631       -118.34044149476389        4457.5664890287726     
   363.17371419199566        19.411398674030629       -118.66160176071661        4576.2280907894892     
   363.75349330767517        19.408879385022498       -119.00197039477311        4695.2300611842620     
   364.36805917029545        19.406203723834771       -119.36269001396204        4814.5927511982245     
   364.70159635525675        19.404750065310409       -119.55843917984978        4934.1511903780747     
   365.05514577131572        19.403207460372041       -119.76590771233997        5053.9170980904146     
   365.42990815233821        19.401570369009029       -119.98579647614258        5173.9028945665568     
   365.82715627622207        19.399832887290504       -120.21884663156678        5294.1217411981233     
   366.24823928753892        19.397988728764854       -120.46584319734514        5414.5875843954682     
   366.69458727953480        19.396031198151682       -120.72761758706547        5535.3152019825338     
   367.16771615105046        19.393953163066985       -121.00505028273042        5656.3202522652646     
   367.66923275485703        19.391747023620425       -121.29907365123714        5777.6193259165020     
   368.20084035489202        19.389404679709788       -121.61067490956658        5899.2300008260690     
   368.76434441092908        19.386917495822281       -121.94089924440006        6021.1709000704695     
   369.36165871032836        19.384276263136005       -122.29085309169641        6143.4617531621661     
   369.68583312689833        19.382841405497885       -122.48075609360278        6265.9425092557685     
   370.02945800846254        19.381318861039016       -122.68202342367626        6388.6245326794451     
   370.39370038292060        19.379703180681666       -122.89533439545544        6511.5198670749005     
   370.77979729984611        19.377988559365058       -123.12140711804678        6634.6412741929471     
   371.18906003178716        19.376168817582670       -123.36100213823636        6758.0022763311836     
   371.62287852764467        19.374237375811472       -123.61492489031930        6881.6172012215029     
   372.08272613325363        19.372187227047387       -123.88402827820670        7005.5012294997096     
   372.57016459519912        19.370010907293473       -124.16921539546316        7129.6704448951723     
   373.08684936486134        19.367700463834069       -124.47144238889831        7254.1418872840704     
   373.63453522070330        19.365247421113697       -124.79172147130893        7378.9336087553793     
   374.21508222789578        19.362642744023823       -125.13112408876080        7504.0647328441401     
   374.53015669963929        19.361227832517301       -125.31529838223972        7629.3800312263802     
   374.86413563968739        19.359726552232814       -125.51049017250122        7754.8905213988810     
   375.21815331613840        19.358133547265634       -125.71735783120998        7880.6078792300914     
   375.59341205317645        19.356443113657495       -125.93659708467239        8006.5444763147634     
   375.99118631443679        19.354649181042916       -126.16894472979612        8132.7134210445593     
   376.41282703137279        19.352745287793201       -126.41518100146315        8259.1286020460229     
   376.85976619132492        19.350724554336125       -126.67613206760585        8385.8047341136280     
   377.33352170087420        19.348579654504846       -126.95267265744518        8512.7574067710739     
   377.83570254099641        19.346302784756947       -127.24572882835585        8640.0031355994306     
   378.36801423152593        19.343885631090902       -127.55628087678781        8767.5594164762188     
   378.93226462348724        19.341319333472452       -127.88536639853167        8895.4447828747507     
   379.53037003896623        19.338594447567178       -128.23408350335632        9023.6788663781062     
   380.16436177937396        19.335700903558422       -128.60359418886716        9152.2824605669739     
   380.83639302420613        19.332627961810601       -128.99512787787964        9281.2775884448529     
   381.12817286196241        19.331292682987815       -129.16509614677773        9410.4426845916314     
   381.43745948998406        19.329876061499853       -129.34522925050595        9539.7879138421376     
   381.76530331568699        19.328373071857051       -129.53613453577114        9669.3240483779082     
   382.11281777093211        19.326778365046536       -129.73845361131652        9799.0625019892250     
   382.48118309349195        19.325086250961512       -129.95286594422961        9929.0153679334544     
   382.87165033540538        19.323290675535624       -130.18009104265869        10059.195458976114     
   383.28554561183358        19.321385196225965       -130.42089075676435        10189.616349732878     
   383.72427460484749        19.319362955714304       -130.67607170306323        10320.292421435941     
   384.18932733744225        19.317216653685197       -130.94648781744124        10451.238909253381     
   384.68228323399268        19.314938516527420       -131.23304304201781        10582.471952295398     
   385.20481648433611        19.312520264792177       -131.53669415098472        10714.008646446384     
   385.75870172970019        19.309953078227498       -131.85845372045824        10845.867100166843     
   386.34582008978612        19.307227558192604       -132.19939324703500        10978.066493413877     
   386.96816555147717        19.304333687239858       -132.56064641961032        11110.627139833487     
   387.62785174086969        19.301260785633534       -132.94341254838704        11243.570552381874     
   388.32711910162578        19.297997464555781       -133.34896015457889        11376.919512536453     
   389.06834250402721        19.294531575728964       -133.77863072346068        11510.698143259913     
   389.85403931057272        19.290850157161625       -134.23384262255129        11644.931985882464     
   390.68687792551100        19.286939374701202       -134.71609518546882        11779.648081067933     
   391.56968685734557        19.282784459051218       -135.22697296048355        11914.875054028416     
   392.50546432509020        19.278369637883692       -135.76815012098564        12050.643204149403     
   393.49738844089950        19.273678062648795       -136.34139503276242        12186.984599182166     
   394.54882800365738        19.268691729653675       -136.94857497014948        12323.933174152315     
   395.66335394018068        19.263391394950904       -137.59166096962474        12461.524835121940     
   396.84475143289541        19.257756482544377       -138.27273280520973        12599.797567927149     
   398.09703277517303        19.251764985387027       -138.99398406481305        12738.791551991962     
   399.42445099798732        19.245393358610666       -139.75772730032588        12878.549279292289     
   400.83151431417048        19.238616404394783       -140.56639921679044        13019.115678509079     
   402.32300142932462        19.231407147847918       -141.42256585677706        13160.538244365856     
   403.90397777138799        19.223736703244477       -142.32892772553404        13302.867172091390     
   405.57981269397516        19.215574129931714       -143.28832478998299        13446.155496881373     
   407.35619771191756        19.206886277198528       -144.30374127058735        13590.459238151960     
   409.23916583093649        19.197637617380444       -145.37831012912963        13735.837548281090     
   411.23511203709654        19.187790066467173       -146.51531713822820        13882.352865419318     
   413.35081501562621        19.177302791481829       -147.71820439973155        14030.071069819049     
   415.59346017286765        19.166132003917738       -148.99057315949275        14179.061642978542     
   417.97066403954358        19.154230738553498       -150.33618574547518        14329.397828724017     
   420.49050013822011        19.141548617022647       -151.75896643449531        14481.156795158513     
   423.16152640281723        19.128031595596870       -153.26300102942398        14634.419796187936     
   425.99281424329013        19.113621757521102       -154.85267532051179        14789.272471508448     
   428.99397935419142        19.098256820456584       -156.53226133432895        14945.804732842777     
   432.17521437174679        19.081870064860773       -158.30631032521677        15104.111043167994     
   435.54732349035550        19.064389933011650       -160.17951580858900        15264.290558976583     
   439.12175915608071        19.045739694938344       -162.15670279165269        15426.447261768237     
   442.91066096174944        19.025837099203102       -164.24281363817886        15590.690075406415     
   446.92689687575830        19.004594010008613       -166.44288984202527        15757.132965248440     
   451.18410694460772        18.981916032840424       -168.76204882944100        15925.895014077882     
   455.69674961758807        18.957702131770496       -171.20545477046591        16097.100468848348     
   460.48015085094727        18.931844242659629       -173.77828225988651        16270.878751108234     
   465.55055615830798        18.904226887822787       -176.48567161042482        16447.364422718660     
   470.92518578411034        18.874726799295388       -179.33267433441262        16626.697097053071     
   476.62229318746085        18.843212559732763       -182.32418708694581        16809.021284140017     
   482.66122703501242        18.809544272320469       -185.46487177434466        16994.486155914361     
   489.06249691341708        18.773573274083386       -188.75905855438938        17183.245214468749     
