 #              _____________________  _______________________             #
 #              ___  __ \__  __ \_  / / /_  /___  ____/_  ___/             #
 #              __  / / /_  /_/ /  / / /_  __/_  __/  _____ \              #
 #              _  /_/ /_  _, _// /_/ / / /_ _  /___  ____/ /              #
 #              /_____/ /_/ |_| \____/  \__/ /_____/  /____/               #
 #                                                                         #
  
 #        time                      T            heat flux [W.L-2]   in    x              directions   cumulative flux
 #-----------------------------------------------------------------------------------------------

   0.0000000000000000          20.000000000000000          -0.0000000000000000          0.0000000000000000     
   1.0000000000000000          19.312526438164642          -212.41100312382719          0.0000000000000000     
   2.0060000000000002          18.676748374374675          -403.16993575373527          403.16993575373527     
   3.0180360000000004          18.088045298242712          -574.20995255906485          980.82514802815444     
   4.0361442160000003          17.542172623686692          -727.36237155394667          1716.9420530861244     
   5.0603610812960005          17.035244997100552          -864.33785006786775          2596.9315196399966     
   6.0907232477837763          16.563716179735405          -986.71830765857737          3607.5450516402389     
   7.1272675872704792          16.124357086018755          -1095.9557687393474          4736.7764118932892     
   8.1700311927941023          15.714233092760058          -1193.3755592949954          5973.7630927622940     
   9.2190513799508675          15.330681394020072          -1280.1821395115794          7308.6904362863343     
   10.274365688230573          14.971288928555596          -1357.4664251697225          8732.7001196769015     
   11.336011882359955          14.633871226426681          -1426.2138365324649          10237.803988036105     
   12.404027953654115          14.316452390611095          -1487.3125748466209          11816.803722602794     
   13.478452121376039          14.017246335223932          -1541.5618039075475          13463.216504069271     
   14.559322834104295          13.734639334604086          -1589.6795344771460          15171.206614844454     
   15.646678771108920          13.467173890052303          -1632.3100908893014          16935.522786177498     
   16.740558843735574          13.213533888177405          -1670.0310942164106          18751.441011456045     
   17.841002196797987          12.972531002764732          -1703.3599332449160          20614.712498943325     
   18.948048209978776          12.743092277951128          -1732.7597189040084          22521.516414065536     
   20.061736499238648          12.524248822133311          -1758.6447336054312          24468.417055004818     
   21.182106918234080          12.315125537854517          -1781.3853968639808          26452.325110150785     
   22.309199559743483          12.114931811716458          -1801.3127744295371          28470.462657980228     
   23.443054757101944          11.922953089262299          -1818.7226612561028          30520.331586428383     
   24.583713085644554          11.738543262110715          -1833.8792698539098          32599.685127880177     
   25.731215364158420          11.561117797902360          -1847.0185555393491          34706.502226228877     
   26.885602656343369          11.390147547487205          -1858.3512092477151          36838.964473119631     
   28.046916272281429          11.225153167970756          -1868.0653472082897          38995.435370907944     
   29.215197769915118          11.065700104558335          -1876.3289251100819          41174.441699616706     
   30.390488956534607          10.911394078453233          -1883.2919025551923          43374.656784015286     
   31.572831890273815          10.761877032282055          -1889.0881817051877          45594.885474720431     
   32.762268881615455          10.616823488574511          -1893.8373421412787          47834.050673852616     
   33.958842494905149          10.475937280673953          -1897.6461921266757          50091.181251246693     
   35.162595549874581          10.338948619074898          -1900.6101547072483          52365.401211519827     
   36.373571123173825          10.205611459561815          -1902.8145054323165          54655.919985474124     
   37.591812549912866          10.075701142657097          -1904.3354769298180          56962.023731403307     
   38.817363425212342          9.9490122767775624          -1905.2412441332108          59283.067542938217     
   40.050267605763615          9.8253568401562728          -1905.5928026309321          61618.468470166939     
   41.290569211398200          9.7045624790195166          -1905.4447513905200          63967.699269965793     
   42.538312626666588          9.5864709817301197          -1904.8459899939728          66330.282809841912     
   43.793542502426590          9.4709369106307619          -1903.8403395034445          68705.787057179667     
   45.056303757441150          9.3578263751584227          -1902.4670951505909          71093.820592663033     
   46.326641579985797          9.2470159314670095          -1900.7615182028251          73494.028592872215     
   47.604601429465710          9.1383915953031032          -1898.7552735988186          75906.089232680897     
   48.890229038042506          9.0318479562424425          -1896.4768192577621          78329.710463161697     
   50.183570412270761          8.9272873826245647          -1893.9517523461107          80764.627125290252     
   51.484671834744383          8.8246193076314619          -1891.2031172259958          83210.598363868077     
   52.793579865752847          8.7237595879541008          -1888.2516793060422          85667.405309801383     
   54.110341344947365          8.6246299273883160          -1885.1161685626168          88134.849002216899     
   55.435003393017048          8.5271573585081413          -1881.8134960931473          90612.748524900715     
   56.767613413375152          8.4312737762888386          -1878.3589466986075          93100.939334244511     
   58.108219093855404          8.3369155182015184          -1874.7663501656202          95599.271758305404     
   59.456868408418536          8.2440229858836993          -1871.0482336261528          98107.609648757163     
   60.813609618869044          8.1525403040118363          -1867.2159571112431          100625.82916945659     
   62.178491276582257          8.0624150124690068          -1863.2798341813884          103153.81770709188     
   63.551562224241749          7.9735977883188891          -1859.2492393074440          105691.47289093985     
   64.932871597587194          7.8860421944709191          -1855.1327034896092          108238.70171015445     
   66.322468827172713          7.7997044522556909          -1850.9379994358853          110795.41971825651     
   67.720403640135743          7.7145432354280281          -1846.6722174734000          113361.55031561010     
   69.126726061976555          7.6305194833818613          -1842.3418332340959          115937.02410166619     
   70.541486418348413          7.5475962315988800          -1837.9527680389731          118521.77828964379     
   71.964735336858510          7.4657384575653811          -1833.5104428006950          121115.75617711202     
   73.396523748879659          7.3849129405810636          -1829.0198261715641          123718.90666664422     
   74.836902891372944          7.3050881340525473          -1824.4854775814713          126331.18383134625     
   76.285924308721178          7.2262340490149555          -1819.9115857371894          128952.54652062396     
   77.743639854573502          7.1483221477591794          -1815.3020030894077          131582.95800205568     
   79.210101693700949          7.0713252465620986          -1810.6602767162863          134222.38563568229     
   80.685362303863158          6.9952174266236593          -1805.9896760211316          136870.80057742543     
   82.169474477686336          6.9199739524097028          -1801.2932175965450          139528.17750869796     
   83.662491324552448          6.8455711966840713          -1796.5736875671826          142194.49438958682     
   85.164466272499766          6.7719865715889336          -1791.8336616877316          144869.73223326841     
   86.675453070134765          6.6991984651994416          -1787.0755234411913          147553.87489956693     
   88.195505788555579          6.6271861830386580          -1782.3014803546785          150246.90890578815     
   89.724678823286908          6.5559298940920536          -1777.5135787252577          152948.82325315938     
   91.263026896226634          6.4854105809083560          -1772.7137169265363          155659.60926738181     
   92.810605057603993          6.4156099934159361          -1767.9036574473239          158379.26045195898     
   94.367468687949611          6.3465106061216154          -1763.0850377966976          161107.77235310432     
   95.933673500077305          6.2780955783924988          -1758.2593803945799          163845.14243515467     
   97.509275541077770          6.2103487175514545          -1753.4281015536455          166591.36996552793     
   99.094331194324241          6.1432544445436781          -1748.5925196464902          169346.45590836109     
   100.68889718149019          6.0767977619556763          -1743.7538625415752          172110.40282605297     
   102.29303056457913          6.0109642241894363          -1738.9132743821710          174883.21478801416     
   103.90678874796660          5.9457399096135770          -1734.0718217743738          177664.89728599630     
   105.53022948045439          5.8811113945304392          -1729.2304994429903          180455.45715543564     
   107.16341085733713          5.8170657288132634          -1724.3902354077047          183254.90250230074     
   108.80639132248115          5.7535904130813744          -1719.5518957262291          186063.24263498420     
   110.45922967041604          5.6906733772934839          -1714.7162888461617          188880.48800082269     
   112.12198504843853          5.6283029606502577          -1709.8841696027860          191706.65012686898     
   113.79471695872917          5.5664678927071467          -1705.0562428960941          194541.74156457529     
   115.47748526048154          5.5051572756073233          -1700.2331670768724          197385.77583807928     
   117.17035017204444          5.4443605673525797          -1695.4155570684977          200238.76739581200     
   118.87337227307670          5.3840675660371646          -1690.6039872484237          203100.73156517316     
   120.58661250671516          5.3242683949760288          -1685.7989941108160          205971.68451004184     
   122.31013218175545          5.2649534886647471          -1681.0010787296715          208851.64319091116     
   124.04399297484598          5.2061135795136906          -1676.2107090397913          211740.62532745447     
   125.78825693269505          5.1477396853036907          -1671.4283219512686          214638.64936334686     
   127.54298647429123          5.0898230973148291          -1666.6543253115965          217545.73443318115     
   129.30824439313696          5.0323553690838230          -1661.8890997281649          220461.90033133083     
   131.08409385949579          4.9753283057490094          -1657.1330002626628          223387.16748262511     
   132.87059842265276          4.9187339539451811          -1652.3863580078189          226321.55691471189     
   134.66782201318867          4.8625645922133724          -1647.6494815559431          229265.09023199481     
   136.47582894526781          4.8068127218934116          -1642.9226583678535          232217.78959103950     
   138.29468391893943          4.7514710584694306          -1638.2061560499849          235179.67767735259     
   140.12445202245306          4.6965325233407453          -1633.5002235467696          238150.77768344432     
   141.96519873458777          4.6419902359925276          -1628.8050922547598          241131.11328809266     
   143.81698992699529          4.5878375065425310          -1624.1209770643868          244120.70863673295     
   145.67989186655726          4.5340678286418274          -1619.4480773347295          247119.58832290271     
   147.55397121775661          4.4806748727090389          -1614.7865778062267          250127.77737067657     
   149.43929504506315          4.4276524794789900          -1610.1366494558217          253145.30121803103     
   151.33593081533354          4.3749946538479927          -1605.4984502986822          256172.18570108287     
   153.24394640022555          4.3226955589991807          -1600.8721261402677          259208.45703914930     
   155.16341007862690          4.2707495107924123          -1596.2578112822316          262254.14182058140     
   157.09439053909867          4.2191509724042868          -1591.6556291853526          265309.26698932576     
   159.03695688233327          4.1678945492047443          -1587.0656930924415          268373.85983217234     
   160.99117862362726          4.1169749838575989          -1582.5051488337708          271447.98107229226     
   162.95712569536903          4.0663871516331564          -1577.9587968238570          274531.66245991155     
   164.93486844954126          4.0161260559218039          -1573.4240446924987          277624.93085318286     
   166.92447766023849          3.9661868239381541          -1568.9010114270138          280727.81346054608     
   168.92602452619994          3.9165647026059642          -1564.3898065967558          283840.33782887185     
   170.93958067335714          3.8672550546146427          -1559.8905308629846          286962.53183216357     
   172.96521815739729          3.8182533546387050          -1555.4032764608005          290094.42366078967     
   175.00300946634167          3.7695551857120595          -1550.9281276548284          293236.04181121947     
   177.05302752313972          3.7211562357494721          -1546.4651611702100          296387.41507623740     
   179.11534568827855          3.6730522942080137          -1542.0144466003649          299548.57253561163     
   181.19003776240822          3.6252392488816980          -1537.5760467928742          302719.54354719492     
   183.27717798898269          3.5777130828229162          -1533.1500182147599          305900.35773843684     
   185.37684105691659          3.5304698713846205          -1528.7364112983405          309091.04499828664     
   187.48910210325809          3.4835057793775710          -1524.3352707687798          312291.63546946883     
   189.61403671587763          3.4368170583372399          -1519.9466359543576          315502.15954111301     
   191.75172093617289          3.3904000438953075          -1515.5705410804374          318722.64784172137     
   193.90223126178992          3.3442511532509127          -1511.2070155480430          321953.13123245793     
   196.06564464936065          3.2983668827371311          -1506.8560841979026          325193.64080074435     
   198.24203851725682          3.2527438054783451          -1502.5177675607424          328444.20785414818     
   200.43149074836035          3.2073785691344421          -1498.1920820946141          331704.86391454947     
   202.63407969285052          3.1622678937279707          -1493.8790404099277          334975.64071257378     
   204.84988417100763          3.1174085695505824          -1489.5786514828799          338256.57018227852     
   207.07898347603367          3.0727974551452881          -1485.2909208578931          341547.68445608154     
   209.32145737688987          3.0284320641602243          -1481.0155690368524          344849.01523175434     
   211.57738612115119          2.9843095769403871          -1476.7525041306910          348160.59418029146     
   213.84685043787809          2.9404268395194979          -1472.5018210967951          351482.45336448087     
   216.12993154050537          2.8967808033244542          -1468.2635903704379          354814.62519037590     
   218.42671112974841          2.8533685141760787          -1464.0378626727536          358157.14236817486     
   220.73727139652689          2.8101871032758092          -1459.8246728340901          361510.03788061359     
   223.06169502490604          2.7672337797813138          -1455.6240428351202          364873.34495735588     
   225.40006519505548          2.7245058246538081          -1451.4359842270169          368247.09705417289     
   227.75246558622581          2.6820005855237761          -1447.2605000590790          371631.32783594658     
   230.11898037974316          2.6397154723730392          -1443.0975864159007          375026.07116272830     
   232.49969426202162          2.5976479538720705          -1438.9472336451668          378431.36107824044     
   234.89469242759375          2.5557955542441912          -1434.8094273404236          381847.23180033377     
   237.30406058215931          2.5141558505544310          -1430.6841491298096          385273.71771301277     
   239.72788494565228          2.4727264703416472          -1426.5713773111484          388710.85335972096     
   242.16625225532619          2.4315050895291259          -1422.4710873653376          392158.67343764141     
   244.61924976885814          2.3904894305620710          -1418.3832523733033          395617.21279281745     
   247.08696526747130          2.3496772607309127          -1414.3078433564820          399086.50641593966     
   249.56948705907612          2.3090663906477111          -1410.2448295565632          402566.58943867544     
   252.06690398143058          2.2686546728495460          -1406.1941786669474          406057.49713044398     
   254.57930540531916          2.2284400005080647          -1402.1558570257068          409559.26489555842     
   257.10678123775108          2.1884203062285095          -1398.1298297777867          413071.92827067320     
   259.64942192517759          2.1485935609248736          -1394.1160610125510          416595.52292248758     
   262.20731845672867          2.1089577727604425          -1390.1145138814727          420130.08464566473     
   264.78056236746903          2.0695109861450613          -1386.1251506997767          423675.64936093538     
   267.36924574167386          2.0302512807821196          -1382.1479330350217          427232.25311336014     
   269.97346121612389          1.9911767707595482          -1378.1828217849970          430799.93207072961     
   272.59330198342064          1.9522856036801586          -1374.2297772468173          434378.72252208582     
   275.22886179532117          1.9135759598274866          -1370.2887591786969          437968.66087635065     
   277.88023496609310          1.8750460513639495          -1366.3597268555927          441569.78366105061     
   280.54751637588964          1.8366941215586603          -1362.4426391196660          445182.12752112816     
   283.23080147414498          1.7985184440426452          -1358.5374544263168          448805.72921783180     
   285.93018628298984          1.7605173220895587          -1354.6441308864044          452440.62562767835     
   288.64576740068776          1.7226890879202541          -1350.7626263051498          456086.85374148190     
   291.37764200509190          1.6850321020297865          -1346.8928982181201          459744.45066344447     
   294.12590785712246          1.6475447525356002          -1343.0349039246285          463413.45361030451     
   296.89066330426522          1.6102254545457928          -1339.1886005188214          467093.89991053898     
