 #              _____________________  _______________________             #
 #              ___  __ \__  __ \_  / / /_  /___  ____/_  ___/             #
 #              __  / / /_  /_/ /  / / /_  __/_  __/  _____ \              #
 #              _  /_/ /_  _, _// /_/ / / /_ _  /___  ____/ /              #
 #              /_____/ /_/ |_| \____/  \__/ /_____/  /____/               #
 #                                                                         #
  
 #        time                      T            heat flux [W.L-2]   in    x              directions   cumulative flux
 #-----------------------------------------------------------------------------------------------

   0.0000000000000000          5.2374000000000001           5.8623673502379887          0.0000000000000000     
   1.0000000000000000          5.2373994058969204           5.8625234765239815          0.0000000000000000     
   2.0060000000000002          5.2373988422794193           5.8626671457316917          5.8626671457316917     
   3.0180360000000004          5.2373983067928718           5.8627995250286640          11.760643467910528     
   4.0361442160000003          5.2373977972663077           5.8629217500662554          17.694131344160581     
   5.0603610812960005          5.2373973116960384           5.8630349387493998          23.663335385996401     
   6.0907232477837763          5.2373968482303255           5.8631402020809125          29.668462464562669     
   7.1272675872704792          5.2373964051550717           5.8632386524444149          35.709721745130167     
   8.1700311927941023          5.2373959808805095           5.8633314096723108          41.787324728360588     
   9.2190513799508675          5.2373955739288656           5.8634196051945278          47.901485296571131     
   10.274365688230573          5.2373951829229499           5.8635043845513239          54.052419763447674     
   11.336011882359955          5.2373948065756508           5.8635869085187835          60.240346925849110     
   12.404027953654115          5.2373944436802820           5.8636683530686202          66.465488116521314     
   13.478452121376039          5.2373940931017557           5.8637499083561835          72.728067256695368     
   14.559322834104295          5.2373937537685382           5.8638327769255101          79.028310907704096     
   15.646678771108920          5.2373934246653278           5.8639181712808508          85.366448320876600     
   16.740558843735574          5.2373931048264355           5.8640073109688320          91.742711485097090     
   17.841002196797987          5.2373927933298212           5.8641014192871985          98.157335171517033     
   18.948048209978776          5.2373924892917296           5.8642017197379754          104.61055697501986     
   20.061736499238648          5.2373921918618942           5.8643094323085334          111.10261735211552     
   21.182106918234080          5.2373919002192828           5.8644257696627404          117.63375965502273     
   22.309199559743483          5.2373916135683078           5.8645519333213691          124.20423016177845     
   23.443054757101944          5.2373913311355071           5.8646891098692810          130.81427810225247     
   24.583713085644554          5.2373910521666174           5.8648384672620564          137.46415568002539     
   25.731215364158420          5.2373907759240357           5.8650011512548028          144.15411809011619     
   26.885602656343369          5.2373905016846152           5.8651782819951919          150.88442353259572     
   28.046916272281429          5.2373902287377705           5.8653709508044010          157.65533322215506     
   29.215197769915118          5.2373899563838586           5.8655802171634361          164.46711139372388     
   30.390488956534607          5.2373896839328040           5.8658071059253469          171.32002530426468     
   31.572831890273815          5.2373894107029439           5.8660526047612755          178.21434523088692     
   32.762268881615455          5.2373891360200640           5.8663176618405339          185.15034446543359     
   33.958842494905149          5.2373888592166011           5.8666031837586026          192.12829930571871     
   35.162595549874581          5.2373885796309807           5.8669100337065929          199.14848904359656     
   36.373571123173825          5.2373882966070866           5.8672390298745096          206.21119595004387     
   37.591812549912866          5.2373880094938219           5.8675909440928695          213.31670525745221     
   38.817363425212342          5.2373877176447516           5.8679665007026234          220.46530513932510     
   40.050267605763615          5.2373874204178135           5.8683663756390523          227.65728668756756     
   41.290569211398200          5.2373871171750634           5.8687911957324923          234.89294388756866     
   42.538312626666588          5.2373868072824701           5.8692415381993639          242.17257359125452     
   43.793542502426590          5.2373864901097207           5.8697179303287426          249.49647548830501     
   45.056303757441150          5.2373861650300233           5.8702208493429922          256.86495207570960     
   46.326641579985797          5.2373858314199264           5.8707507224238151          264.27830862583511     
   47.604601429465710          5.2373854886591031           5.8713079268903643          271.73685315317016     
   48.890229038042506          5.2373851361301265           5.8718927905212590          279.24089637990693     
   50.183570412270761          5.2373847732182037           5.8725055920054698          286.79075170051078     
   51.484671834744383          5.2373843993108817           5.8731465615115361          294.38673514542006     
   52.793579865752847          5.2373840137977048           5.8738158813622103          302.02916534400862     
   54.110341344947365          5.2373836160698293           5.8745136868085641          309.71836348694148     
   55.435003393017048          5.2373832055195759           5.8752400668889466          317.45465328804107     
   56.767613413375152          5.2373827815399370           5.8759950653632673          325.23836094577251     
   58.108219093855404          5.2373823435240210           5.8767786817168375          333.06981510445524     
   59.456868408418536          5.2373818908644409           5.8775908722165564          340.94934681528764     
   60.813609618869044          5.2373814229526365           5.8784315510254599          348.87728949728444     
   62.178491276582257          5.2373809391781396           5.8793005913516643          356.85397889819728     
   63.551562224241749          5.2373804389277785           5.8801978266362918          364.87975305549827     
   64.932871597587194          5.2373799215848171           5.8811230517667381          372.95495225748971     
   66.322468827172713          5.2373793865280405           5.8820760243147960          381.07991900460627     
   67.720403640135743          5.2373788331307765           5.8830564657891298          389.25499797096205     
   69.126726061976555          5.2373782607598640           5.8840640629013725          397.48053596619661     
   70.541486418348413          5.2373776687745703           5.8850984688326982          405.75688189765708     
   71.964735336858510          5.2373770565254469           5.8861593045125931          414.08438673297087     
   73.396523748879659          5.2373764233531457           5.8872461598871073          422.46340346303288     
   74.836902891372944          5.2373757685871869           5.8883585951878139          430.89428706544794     
   76.285924308721178          5.2373750915446831           5.8894961421905005          439.37739446845376     
   77.743639854573502          5.2373743915290225           5.8906583054657267          447.91308451535389     
   79.210101693700949          5.2373736678285274           5.8918445636152690          456.50171792948140     
   80.685362303863158          5.2373729197150638           5.8930543704947187          465.14365727971511     
   82.169474477686336          5.2373721464426435           5.8942871564171746          473.83926694656236     
   83.662491324552448          5.2373713472459817           5.8955423293473777          482.58891308883665     
   85.164466272499766          5.2373705213390593           5.8968192760652576          491.39296361092693     
   86.675453070134765          5.2373696679136490           5.8981173633186978          500.25178813068470     
   88.195505788555579          5.2373687861378411           5.8994359389540971          509.16575794793778     
   89.724678823286908          5.2373678751545594           5.9007743330234694          518.13524601363781     
   91.263026896226634          5.2373669340800797           5.9021318588702938          527.16062689965099     
   92.810605057603993          5.2373659620025412           5.9035078141957467          536.24227676920361     
   94.367468687949611          5.2373649579804757           5.9049014820991204          545.38057334798498     
   95.933673500077305          5.2373639210413305           5.9063121320998295          554.57589589592033     
   97.509275541077770          5.2373628501800269           5.9077390211328886          563.82862517961325     
   99.094331194324241          5.2373617443575116           5.9091813945269198          573.13914344547186     
   100.68889718149019          5.2373606024993462           5.9106384869546975          582.50783439351551     
   102.29303056457913          5.2373594234943219           5.9121095233652561          591.93508315187364     
   103.90678874796660          5.2373582061930932           5.9135937198942550          601.42127625198111     
   105.53022948045439          5.2373569494068510           5.9150902847485325          610.96680160446977     
   107.16341085733713          5.2373556519060305           5.9165984190748651          620.57204847576884     
   108.80639132248115          5.2373543124190514           5.9181173178024364          630.23740746541091     
   110.45922967041604          5.2373529296311103           5.9196461704685808          639.96327048405544     
   112.12198504843853          5.2373515021830057           5.9211841620203645          649.75003073222740     
   113.79471695872917          5.2373500286700185           5.9227304735987261          659.59808267978144     
   115.47748526048154          5.2373485076408341           5.9242842833008638          669.50782204609209     
   117.17035017204444          5.2373469375965271           5.9258447669213368          679.47964578097253     
   118.87337227307670          5.2373453169895878           5.9274110986781103          689.51395204633309     
   120.58661250671516          5.2373436442230084           5.9289824519137406          699.61114019857462     
   122.31013218175545          5.2373419176494291           5.9305579997817333          709.77161077172707     
   124.04399297484598          5.2373401355703404           5.9321369159128237          719.99576546133562     
   125.78825693269505          5.2373382962353450           5.9337183750604572          730.28400710909386     
   127.54298647429123          5.2373363978414842           5.9353015537316844          740.63673968823366     
   129.30824439313696          5.2373344385326233           5.9368856307955893          751.05436828966845     
   131.08409385949579          5.2373324163989041           5.9384697880768922          761.53729910889740     
   132.87059842265276          5.2373303294762561           5.9400532109301833          772.08593943367077     
   134.66782201318867          5.2373281757459784           5.9416350887962439          782.70069763241884     
   136.47582894526781          5.2373259531343788           5.9432146157423276          793.38198314344879     
   138.29468391893943          5.2373236595124864           5.9447909909830940          804.13020646490781     
   140.12445202245306          5.2373212926958272           5.9463634193847978          814.94577914551473     
   141.96519873458777          5.2373188504442592           5.9479311119522702          825.82911377606138     
   143.81698992699529          5.2373163304618808           5.9494932862989360          836.78062398168368     
   145.67989186655726          5.2373137303969983           5.9510491671007877          847.80072441490506     
   147.55397121775661          5.2373110478421543           5.9525979865331724          858.88983074945043     
   149.43929504506315          5.2373082803342337           5.9541389846882060          870.04835967482563     
   151.33593081533354          5.2373054253546174           5.9556714099790335          881.27672889166740     
   153.24394640022555          5.2373024803294035           5.9571945195273610          892.57535710786169     
   155.16341007862690          5.2372994426296904           5.9587075795313806          903.94466403542162     
   157.09439053909867          5.2372963095719207           5.9602098656227067          915.38507038813384     
   159.03695688233327          5.2372930784182836           5.9617006632010616          926.89699787995664     
   160.99117862362726          5.2372897463771722           5.9631792677587043          938.48086922417895     
   162.95712569536903          5.2372863106036958           5.9646449851857204          950.13710813332909     
   164.93486844954126          5.2372827682002558           5.9660971320607201          961.86613931983084     
   166.92447766023849          5.2372791162171666           5.9675350359265034          973.66838849740327     
   168.92602452619994          5.2372753516533317           5.9689580355480043          985.54428238319497     
   170.93958067335714          5.2372714714569719           5.9703654811580593          997.49424870065116     
   172.96521815739729          5.2372674725263959           5.9717567346873999          1009.5187161831084     
   175.00300946634167          5.2372633517108298           5.9731311699776590          1021.6181145781037     
   177.05302752313972          5.2372591058112805           5.9744881729821895          1033.7928746523978     
   179.11534568827855          5.2372547315814435           5.9758271419530304          1046.0434281977055     
   181.19003776240822          5.2372502257286611           5.9771474876104005          1058.3702080371183     
   183.27717798898269          5.2372455849149144           5.9784486333004887          1070.7736480322183     
   185.37684105691659          5.2372408057578568           5.9797300151398591          1083.2541830908713     
   187.48910210325809          5.2372358848318763           5.9809910821450281          1095.8122491756931     
   189.61403671587763          5.2372308186692065           5.9822312963479396          1108.4482833131738     
   191.75172093617289          5.2372256037610505           5.9834501329018739          1121.1627236034599     
   193.90223126178992          5.2372202365587572           5.9846470801711122          1133.9560092307779     
   196.06564464936065          5.2372147134750131           5.9858216398079094          1146.8285804744867     
   198.24203851725682          5.2372090308850643           5.9869733268194461          1159.7808787207568     
   200.43149074836035          5.2372031851279592           5.9881016696232985          1172.8133464748637     
   202.63407969285052          5.2371971725078268           5.9892062100868833          1185.9264273740775     
   204.84988417100763          5.2371909892951622           5.9902865035595045          1199.1205662011464     
   207.07898347603367          5.2371846317281454           5.9913421188907652          1212.3962088983558     
   209.32145737688987          5.2371780960139649           5.9923726384394183          1225.7538025821582     
   211.57738612115119          5.2371713783301646           5.9933776580719362          1239.1937955583592     
   213.84685043787809          5.2371644748260069           5.9943567871491350          1252.7166373378470     
   216.12993154050537          5.2371573816238453           5.9953096485041790          1266.3227786528557     
   218.42671112974841          5.2371500948205076           5.9962358784086387          1280.0126714737462     
   220.73727139652689          5.2371426104886876           5.9971351265337729          1293.7867690263015     
   223.06169502490604          5.2371349246783483           5.9980070558969851          1307.6455258095141     
   225.40006519505548          5.2371270334181279           5.9988513428027685          1321.5893976138589     
   227.75246558622581          5.2371189327167489           5.9996676767757835          1335.6188415400411     
   230.11898037974316          5.2371106185644383           6.0004557604822066          1349.7343160181997     
   232.49969426202162          5.2371020869343381           6.0012153096467751          1363.9362808275616     
   234.89469242759375          5.2370933337839203           6.0019460529607631          1378.2251971165317     
   237.30406058215931          5.2370843550564059           6.0026477319813250          1392.6015274232027     
   239.72788494565228          5.2370751466821703           6.0033201010272847          1407.0657356962811     
   242.16625225532619          5.2370657045801572           6.0039629270636548          1421.6182873164064     
   244.61924976885814          5.2370560246592710           6.0045759895840325          1436.2596491178610     
   247.08696526747130          5.2370461028197806           6.0051590804824588          1450.9902894106483     
   249.56948705907612          5.2370359349547000           6.0057120039250460          1465.8106780029411     
   252.06690398143058          5.2370255169511672           6.0062345762098968          1480.7212862238725     
   254.57930540531916          5.2370148446918119           6.0067266256265217          1495.7225869466693     
   257.10678123775108          5.2370039140561113           6.0071879923076406          1510.8150546121094     
   259.64942192517759          5.2369927209217302           6.0076185280771259          1525.9991652522945     
   262.20731845672867          5.2369812611658517           6.0080180962934282          1541.2753965147249     
   264.78056236746903          5.2369695306664941           6.0083865716882086          1556.6442276866642     
   267.36924574167386          5.2369575253038088           6.0087238402016236          1572.1061397197834     
   269.97346121612389          5.2369452409613615           6.0090297988154600          1587.6616152550782     
   272.59330198342064          5.2369326735273987           6.0093043553791050          1603.3111386480366     
   275.22886179532117          5.2369198188960970           6.0095474284350221          1619.0551959940540     
   277.88023496609310          5.2369066729687903           6.0097589470406598          1634.8942751540840     
   280.54751637588964          5.2368932316551762           6.0099388505881928          1650.8288657805133     
   283.23080147414498          5.2368794908745082           6.0100870886211641          1666.8594593432508     
   285.93018628298984          5.2368654465567630           6.0102036206487313          1682.9865491560179     
   288.64576740068776          5.2368510946437832           6.0102884159580086          1699.2106304028312     
   291.37764200509190          5.2368364310904045           6.0103414534254380          1715.5322001646705     
   294.12590785712246          5.2368214518655583           6.0103627213236344          1731.9517574463118     
   296.89066330426522          5.2368061529533430           6.0103522171322838          1748.4698032033325     
