 #              _____________________  _______________________             #
 #              ___  __ \__  __ \_  / / /_  /___  ____/_  ___/             #
 #              __  / / /_  /_/ /  / / /_  __/_  __/  _____ \              #
 #              _  /_/ /_  _, _// /_/ / / /_ _  /___  ____/ /              #
 #              /_____/ /_/ |_| \____/  \__/ /_____/  /____/               #
 #                                                                         #
  
 #        time                      T            heat flux [W.L-2]   in    x              directions   cumulative flux
 #-----------------------------------------------------------------------------------------------

   0.0000000000000000          5.3307000000000002          -3.3483709793450664          0.0000000000000000     
   1.0000000000000000          5.3312589547113536          -3.4943289001589095          0.0000000000000000     
   2.0060000000000002          5.3317894236307213          -3.6285681676663954          3.6285681676663954     
   3.0180360000000004          5.3322936039080080          -3.7520822282565187          7.4031628892924530     
   4.0361442160000003          5.3327735169420674          -3.8657810544459590          11.315472484509723     
   5.0603610812960005          5.3332310221652168          -3.9704979109382292          15.357869029246769     
   6.0907232477837763          5.3336678297905209          -4.0669956006417269          19.523354514508661     
   7.1272675872704792          5.3340855125950721          -4.1559722279246145          23.805511063136095     
   8.1700311927941023          5.3344855168077334          -4.2380665139903062          28.198454918580889     
   9.2190513799508675          5.3348691721654129          -4.3138626970242377          32.696793938263745     
   10.274365688230573          5.3352377011976637          -4.3838950476214507          37.295588341595213     
   11.336011882359955          5.3355922277954759          -4.4486520280128818          41.990314479314733     
   12.404027953654115          5.3359337851163655          -4.5085801217228019          46.776831406469135     
   13.478452121376039          5.3362633228743102          -4.5640873585124666          51.651350056150960     
   14.559322834104295          5.3365817140597906          -4.6155465578008759          56.610404825097959     
   15.646678771108920          5.3368897611320403          -4.6632983121747804          61.650827395442789     
   16.740558843735574          5.3371882017226708          -4.7076537311296178          66.769722629348550     
   17.841002196797987          5.3374777138870533          -4.7488969637813820          71.964446384986218     
   18.948048209978776          5.3377589209372704          -4.7872875179991077          77.232585113366994     
   20.061736499238648          5.3380323958879972          -4.8230623921671283          82.571937105937806     
   21.182106918234080          5.3382986655443680          -4.8564380346300933          87.980495272621567     
   22.309199559743483          5.3385582142587715          -4.8876121448051206          93.456431339184036     
   23.443054757101944          5.3388114873815073          -4.9167653289022617          98.998081361418343     
   24.583713085644554          5.3390588944283586          -4.9440626222643322          104.60393246173845     
   25.731215364158420          5.3393008119863925          -4.9696548894193819          110.27261070133719     
   26.885602656343369          5.3395375863776628          -4.9936801121038057          116.00287000814569     
   28.046916272281429          5.3397695360989967          -5.0162645747264794          121.79358208744749     
   29.215197769915118          5.3399969540546008          -5.0375239559998306          127.64372724816425     
   30.390488956534607          5.3402201095969435          -5.0575643347688812          133.55238608356677     
   31.572831890273815          5.3404392503901184          -5.0764831174215175          139.51873195049492     
   32.762268881615455          5.3406546041087939          -5.0943698936501924          145.54202419610598     
   33.958842494905149          5.3408663799848268          -5.1113072267794282          151.62160208574932     
   35.162595549874581          5.3410747702125851          -5.1273713843206403          157.75687938976404     
   36.373571123173825          5.3412799512232256          -5.1426330139434464          163.94733959088512     
   37.591812549912866          5.3414820848372839          -5.1571577695680855          170.19253167748249     
   38.817363425212342          5.3416813193042394          -5.1710068918774015          176.49206649112065     
   40.050267605763615          5.3418777902369854          -5.1842377471257075          182.84561359987114     
   41.290569211398200          5.3420716214485191          -5.1969043277607962          189.25289867149243     
   42.538312626666588          5.3422629256976286          -5.2090577180379007          195.71370132301806     
   43.793542502426590          5.3424518053497581          -5.2207465274715874          202.22785342545603     
   45.056303757441150          5.3426383529588186          -5.2320172946954910          208.79523784425083     
   46.326641579985797          5.3428226517752657          -5.2429148640203254          215.41578759787564     
   47.604601429465710          5.3430047761853441          -5.2534827367322450          222.08948541843196     
   48.890229038042506          5.3431847920860891          -5.2637633989579591          228.81636369946216     
   50.183570412270761          5.3433627572003433          -5.2737986277131750          235.59650481732461     
   51.484671834744383          5.3435387213357313          -5.2836297765491080          242.43004181343997     
   52.793579865752847          5.3437127265913347          -5.2932980420686508          249.31715942555235     
   54.110341344947365          5.3438848075155425          -5.3028447124157196          256.25809545682404     
   55.435003393017048          5.3440549912183455          -5.3123113986940202          263.25314247211026     
   56.767613413375152          5.3442232974412009          -5.3217402501830522          270.30264981121263     
   58.108219093855404          5.3443897385873811          -5.3311741540764075          277.40702590920898     
   59.456868408418536          5.3445543197156180          -5.3406569203900363          284.56674091418000     
   60.813609618869044          5.3447170384997049          -5.3502334526043782          291.78232959278762     
   62.178491276582257          5.3448778851566079          -5.3599499045312138          299.05439451421540     
   63.551562224241749          5.3450368423455501          -5.3698538238326607          306.38360950296578     
   64.932871597587194          5.3451938850404206          -5.3799942825700366          313.77072335093686     
   66.322468827172713          5.3453489803778078          -5.3904219951218604          321.21656377908619     
   67.720403640135743          5.3455020874828625          -5.4011894237683533          328.72204163882134     
   69.126726061976555          5.3456531572751187          -5.4123508722152449          336.28815534306187     
   70.541486418348413          5.3458021322564013          -5.4239625673165150          343.91599551670436     
   71.964735336858510          5.3459489462828058          -5.4360827292279623          351.60674985597382     
   73.396523748879659          5.3460935243227672          -5.4487716302242140          359.36170818589892     
   74.836902891372944          5.3462357822031024          -5.4620916424015356          367.18226770488701     
   76.285924308721178          5.3463756263449680          -5.4761072744985491          375.06993840513042     
   77.743639854573502          5.3465129534915077          -5.4908851980493294          383.02634865730431     
   79.210101693700949          5.3466476504290164          -5.5064942631148890          391.05325094779352     
   80.685362303863158          5.3467795937033573          -5.5230055038277790          399.15252775644780     
   82.169474477686336          5.3469086493333107          -5.5404921340025561          407.32619756265530     
   83.662491324552448          5.3470346725225228          -5.5590295330815040          415.57642096734412     
   85.164466272499766          5.3471575073716497          -5.5786952226888751          423.90550691835011     
   86.675453070134765          5.3472769865922265          -5.5995688340831808          432.31591902644959     
   88.195505788555579          5.3473929312238040          -5.6217320668194679          440.81028195925512     
   89.724678823286908          5.3475051503557518          -5.6452686388946320          449.39138790002266     
   91.263026896226634          5.3476134408551683          -5.6702642286757650          458.06220305831533     
   92.810605057603993          5.3477175871022427          -5.6968064088730728          466.82587421931589     
   94.367468687949611          5.3478173607343971          -5.7249845728043143          475.68573531841014     
   95.933673500077305          5.3479125204004951          -5.7548898531797530          484.64531402747076     
   97.509275541077770          5.3480028115263707          -5.7866150335955373          493.70833833901855     
   99.094331194324241          5.3480879660929217          -5.8202544529221738          502.87874313418479     
   100.68889718149019          5.3481677024279781          -5.8559039027379809          512.16067672008762     
   102.29303056457913          5.3482417250131347          -5.8936605179401829          521.55850732189788     
   103.90678874796660          5.3483097243067368          -5.9336226606688927          531.07682951452989     
   105.53022948045439          5.3483713765841943          -5.9758897976616261          540.72047057852808     
   107.16341085733713          5.3484263437967634          -6.0205623711697518          550.49449676436836     
   108.80639132248115          5.3484742734499431          -6.0677416635661876          560.40421944904006     
   110.45922967041604          5.3485147985026176          -6.1175296558107144          570.45520116847626     
   112.12198504843853          5.3485475372880025          -6.1700288799468641          580.65326150911824     
   113.79471695872917          5.3485720934575136          -6.2253422658527082          591.00448284169556     
   115.47748526048154          5.3485880559485439          -6.2835729825031921          601.51521588016874     
   117.17035017204444          5.3485949989771555          -6.3448242740444716          612.19208504871983     
   118.87337227307670          5.3485924820565938          -6.4091992910335609          623.04199363972430     
   120.58661250671516          5.3485800500425036          -6.4768009172517846          634.07212874579011     
   122.31013218175545          5.3485572332056250          -6.5477315925548298          645.28996594922069     
   124.04399297484598          5.3485235473326620          -6.6220931322714298          656.70327375263969     
   125.78825693269505          5.3484784938559393          -6.6999865437262995          668.32011773504087     
   127.54298647429123          5.3484215600123193          -6.7815118405066750          680.14886441816338     
   129.30824439313696          5.3483522190317698          -6.8667678551397060          692.19818482886001     
   131.08409385949579          5.3482699303558316          -6.9558520508982538          704.47705774402755     
   132.87059842265276          5.3481741398860976          -7.0488603334807731          716.99477260567721     
   134.66782201318867          5.3480642802626717          -7.1458868633400101          729.76093209483759     
   136.47582894526781          5.3479397711724657          -7.2470238694733480          742.78545435423200     
   138.29468391893943          5.3478000196869724          -7.3523614654734484          756.07857485095951     
   140.12445202245306          5.3476444206290887          -7.4619874686785801          769.65084787184071     
   141.96519873458777          5.3474723569683418          -7.5759872232265622          783.51314764552751     
   143.81698992699529          5.3472832002437576          -7.6944434278339866          797.67666908701949     
   145.67989186655726          5.3470763110134563          -7.8174359690834416          812.15292816177805     
   147.55397121775661          5.3468510393299136          -7.9450417609863786          826.95376186822045     
   149.43929504506315          5.3466067252396856          -8.0773345915533810          842.09132783897883     
   151.33593081533354          5.3463426993062804          -8.2143849770594652          857.57810356289792     
   153.24394640022555          5.3460582831547239          -8.3562600246520304          873.42688523133336     
   155.16341007862690          5.3457527900362587          -8.5030233038910463          889.65078621385737     
   157.09439053909867          5.3454255254115202          -8.6547347277606086          906.26323516999264     
   159.03695688233327          5.3450757875504378          -8.8114504436252847          923.27797380504830     
   160.99117862362726          5.3447028681470332          -8.9732227345482123          940.70905427952914     
   162.95712569536903          5.3443060529472151          -9.1400999313162572          958.57083628290718     
   164.93486844954126          5.3438846223876277          -9.3121263354538861          976.87798378378216     
   166.92447766023849          5.3434378522435697          -9.4893421534491740          995.64546146962721     
   168.92602452619994          5.3429650142839513          -9.6717834423268219          1014.8885308903498     
   170.93958067335714          5.3424653769312824          -9.8594820666653487          1034.6227463208868     
   172.96521815739729          5.3419382059246319          -10.052465667069105          1054.8639503589004     
   175.00300946634167          5.3413827649835550          -10.250757640058096          1075.6282692744130     
   177.05302752313972          5.3407983164709778          -10.454377129270815          1096.9321081288681     
   179.11534568827855          5.3401841220530564          -10.663339027823362          1118.7921456816653     
   181.19003776240822          5.3395394433541030          -10.877653991620782          1141.2253291026798     
   183.27717798898269          5.3388635426046713          -11.097328463355367          1164.2488685096168     
   185.37684105691659          5.3381556832810100          -11.322364706901340          1187.8802313493375     
   187.48910210325809          5.3374151307341009          -11.552760851752478          1212.1371366424346     
   189.61403671587763          5.3366411528066307          -11.788510947143152          1237.0375491104553     
   191.75172093617289          5.3358330204362643          -12.029605025430577          1262.5996732051349     
   193.90223126178992          5.3349900082437305          -12.276029174320124          1288.8419470589633     
   196.06564464936065          5.3341113951042747          -12.527765617470131          1315.7830363762430     
   198.24203851725682          5.3331964647011381          -12.784792803011467          1343.4418282835961     
   200.43149074836035          5.3322445060598307          -13.047085499499074          1371.8374251586229     
   202.63407969285052          5.3312548140620297          -13.314614898797407          1400.9891384550792     
   204.84988417100763          5.3302266899380628          -13.587348725410116          1430.9164825426001     
   207.07898347603367          5.3291594417369987          -13.865251351752178          1461.6391685785864     
   209.32145737688987          5.3280523847734855          -14.148283918869529          1493.1770984294496     
   211.57738612115119          5.3269048420505545          -14.436404462119622          1525.5503586579568     
   213.84685043787809          5.3257161446577097          -14.729568041328319          1558.7792145929425     
   216.12993154050537          5.3244856321436762          -15.027726874959665          1592.8841044971814     
   218.42671112974841          5.3232126528633223          -15.330830477841195          1627.8856338487228     
   220.73727139652689          5.3218965642982887          -15.638825802011191          1663.8045697505095     
   223.06169502490604          5.3205367333509708          -15.951657380263512          1700.6618354826103     
   225.40006519505548          5.3191325366115452          -16.269267471997544          1738.4785052109419     
   227.75246558622581          5.3176833605978366          -16.591596210997398          1777.2757988659025     
   230.11898037974316          5.3161886019678164          -16.918581754785098          1817.0750772039062     
   232.49969426202162          5.3146476677046417          -17.250160435224608          1857.8978370644129     
   234.89469242759375          5.3130599752741565          -17.586266910082770          1899.7657068347012     
   237.30406058215931          5.3114249527548099          -17.926834315267520          1942.7004421342824     
   239.72788494565228          5.3097420389400272          -18.271794417516833          1986.7239217306162     
   242.16625225532619          5.3080106834130207          -18.621077767317587          2031.8581436975376     
   244.61924976885814          5.3062303465942469          -18.974613851455604          2078.1252218266127     
   247.08696526747130          5.3044004997619556          -19.332331243987742          2125.5473822988906     
   249.56948705907612          5.3025206250467560          -19.694157753804820          2174.1469606200872     
   252.06690398143058          5.3005902154017468          -20.060020566408976          2223.9463988162383     
   254.57930540531916          5.2986087745504573          -20.429846377098233          2274.9682428795054     
   257.10678123775108          5.2965758169156434          -20.803561512493957          2327.2351404454489     
   259.64942192517759          5.2944908675327698          -21.181092037250757          2380.7698386741163     
   262.20731845672867          5.2923534619527910          -21.562363842862300          2435.5951822980719     
   264.78056236746903          5.2901631461395473          -21.947302715712219          2491.7341117914934     
   267.36924574167386          5.2879194763676187          -22.335834382073980          2549.2096616064709     
   269.97346121612389          5.2856220191268299          -22.727884528524292          2608.0449584163084     
   272.59330198342064          5.2832703510397003          -23.123378797043060          2668.2632193011382     
   275.22886179532117          5.2808640587979854          -23.522242754904816          2729.8877498086881     
   277.88023496609310          5.2784027391241555          -23.924401840270853          2792.9419418226648     
   280.54751637588964          5.2758859987631075          -24.329781285108520          2857.4492711727503     
   283.23080147414498          5.2733134545087141          -24.738306017722504          2923.4332949236800     
   285.93018628298984          5.2706847332689808          -25.149900547739147          2990.9176482860321     
   288.64576740068776          5.2679994721726260          -25.564488836817080          3059.9260410980205     
   291.37764200509190          5.2652573187188896          -25.981994158715292          3130.4822538355661     
   294.12590785712246          5.2624579309713324          -26.402338952561415          3202.6101331169384     
   296.89066330426522          5.2596009777952402          -26.825444673258989          3276.3335866779908     
