 #              _____________________  _______________________             #
 #              ___  __ \__  __ \_  / / /_  /___  ____/_  ___/             #
 #              __  / / /_  /_/ /  / / /_  __/_  __/  _____ \              #
 #              _  /_/ /_  _, _// /_/ / / /_ _  /___  ____/ /              #
 #              /_____/ /_/ |_| \____/  \__/ /_____/  /____/               #
 #                                                                         #
  
 #        time                      T            heat flux [W.L-2]   in    x              directions   cumulative flux
 #-----------------------------------------------------------------------------------------------

   0.0000000000000000        5.0949000000000000        4.9673840404933207        4.9673840404933207     
   1.0000000000000000        5.0951846355422505        4.8796104790364003        9.8469945195297210     
   1.9540000000000002        5.0954413228526008        4.8028182881038335        14.649812807633555     
   2.8641160000000001        5.0956737464374564        4.7353221879904179        19.385134995623972     
   3.8288389600000006        5.0959072695863785        4.6696541376859644        24.054789133309935     
   4.8514452976000007        5.0961416072682448        4.6060100756657505        28.660799208975686     
   5.9354080154560007        5.0963765004717860        4.5445671576289595        33.205366366604643     
   7.0844084963833609        5.0966117214134599        4.4854803745536334        37.690846741158275     
   8.3023490061663630        5.0968470781071495        4.4288794342295841        42.119726175387861     
   9.5933659465363448        5.0970824180469538        4.3748660137610162        46.494592189148875     
   10.961843903328527        5.0973176307506725        4.3235114880272514        50.818103677176126     
   12.412430537528239        5.0975526489180503        4.2748552319200481        55.092958909096176     
   13.950052369779934        5.0977874479757519        4.2289035822195622        59.321862491315741     
   15.579931511966731        5.0980220438112180        4.1856295283013081        63.507492019617047     
   17.307603402684734        5.0982564885403914        4.1449731799459171        67.652465199562968     
   19.138935606845820        5.0984908642095430        4.1068430360022443        71.759308235565214     
   21.080147743256571        5.0987252743981326        4.0711180505008393        75.830426286066057     
   23.137832607851966        5.0989598337659752        4.0376504641649431        79.868076750230998     
   25.318978564323086        5.0991946556716643        4.0062693403987986        83.874346090629800     
   27.630993278182473        5.0994298380769081        3.9767847170748656        87.851130807704664     
   30.081728874873424        5.0996654480392820        3.9489922601052214        91.800123067809892     
   32.679508607365833        5.0999015051796182        3.9226782830903706        95.722801350900269     
   35.433155123807786        5.1001379645847704        3.8976249803836667        99.620426331283937     
   38.352020431236255        5.1003746996669870        3.8736157096519297        103.49404204093587     
   41.446017657110431        5.1006114855425562        3.8504401551681111        107.34448219610398     
   44.725654716537058        5.1008479835101186        3.8278992053021672        111.17238140140616     
   48.202069999529286        5.1010837271995095        3.8058093872702261        114.97819078867639     
   51.887070199501046        5.1013181109227279        3.7840067192594899        118.76219750793588     
   55.793170411471110        5.1015503806887557        3.7623498643746851        122.52454737231056     
   59.933636636159378        5.1017796282451178        3.7407225016055676        126.26526987391614     
   64.322530834328944        5.1020047883849244        3.7190348650549039        129.98430473897105     
   68.974758684388689        5.1022246396148265        3.6972244419994822        133.68152918097053     
   73.906120205452012        5.1024378081252708        3.6752558606199957        137.35678504159051     
   78.837481726515335        5.1026322327577951        3.6543166404934753        141.01110168208399     
   84.064724938842460        5.1028184763927049        3.6331766470236886        144.64427832910769     
   89.605602743909216        5.1029949148982983        3.6118685540817173        148.25614688318942     
   95.146480548975973        5.1031515928644566        3.5915966860455355        151.84774356923495     
   100.68735835404273        5.1032896457612456        3.5723104187397121        155.42005398797465     
   106.22823615910949        5.1034101364665583        3.5539673900058739        158.97402137798053     
   111.76911396417624        5.1035140628757611        3.5365302728295682        162.51055165081010     
   117.64244443754700        5.1036067268609546        3.5190241424174267        166.02957579322754     
   123.86817473932000        5.1036865288688027        3.5015200632181589        169.53109585644569     
   130.46744885919938        5.1037517930848644        3.4840962292497681        173.01519208569545     
   137.46267942627154        5.1038007726019918        3.4668373102743595        176.48202939596982     
   144.87762382736801        5.1038316545669868        3.4498337319899939        179.93186312795982     
   152.73746489253028        5.1038425650380761        3.4331808979996761        183.36504402595949     
   161.06889642160229        5.1038315732784607        3.4169783554534248        186.78202238141293     
   169.90021384241862        5.1037966952078850        3.4013289013927746        190.18335128280572     
   179.26141030848393        5.1037358957337711        3.3863376238041867        193.56968890660991     
   188.62260677454924        5.1036533077690258        3.3728334847263093        196.94252239133621     
   197.98380324061455        5.1035507659518631        3.3607130595173160        200.30323545085352     
   207.90667149464377        5.1034216051164307        3.3493050878163473        203.65254053866988     
   217.82953974867300        5.1032737253382514        3.3392295591587797        206.99177009782866     
   227.75240800270223        5.1031086908760379        3.3303866998209717        210.32215679764963     
   238.27064835197319        5.1029161380159085        3.3222883528646063        213.64444515051423     
   249.41998312220042        5.1026939875245843        3.3150163299287572        216.95946148044300     
   260.56931789242765        5.1024553433945332        3.3089458213184142        220.26840730176141     
   271.71865266265490        5.1022015823512401        3.3039751508519344        223.57238245261334     
   282.86798743288216        5.1019339282821186        3.3000109955008021        226.87239344811414     
   294.01732220310942        5.1016534708000831        3.2969677404834794        230.16936118859761     
   305.16665697333667        5.1013611814559496        3.2947668735601456        233.46412806215776     
   316.31599174356393        5.1010579279027235        3.2933364188444778        236.75746448100224     
   327.46532651379118        5.1007444862778861        3.2926104093335193        240.05007489033576     
   338.61466128401844        5.1004215520358676        3.2925283967767189        243.34260328711250     
   349.76399605424569        5.1000897494326232        3.2930349971582467        246.63563828427075     
   360.91333082447295        5.0997496398374578        3.2940794699420892        249.92971775421285     
   372.06266559470021        5.0994017290238238        3.2956153291710146        253.22533308338387     
   383.88096045114105        5.0990247188119433        3.2977449897192361        256.52307807310314     
   396.40835299896838        5.0986164226202053        3.3005115640837697        259.82358963718690     
   408.93574554679572        5.0981999775447688        3.3037378143669858        263.12732745155387     
   421.46313809462305        5.0977758480035904        3.3073788600749445        266.43470631162882     
   433.99053064245038        5.0973444527880627        3.3113939584860037        269.74610027011482     
   447.26956674314732        5.0968794587655664        3.3160264165927757        273.06212668670759     
   460.54860284384426        5.0964071545171681        3.3209957102343344        276.38312239694193     
   474.62438111058304        5.0958987325796778        3.3265991932733963        279.70972159021534     
   489.54470607332615        5.0953515296095659        3.3328712217600089        283.04259281197534     
   505.36025053383383        5.0947626937654897        3.3398450251494212        286.38243783712477     
   522.12472766197197        5.0941291719495592        3.3475523375711691        289.72999017469596     
   539.89507341779847        5.0934476965980222        3.3560230003903690        293.08601317508635     
   557.66541917362497        5.0927567943924226        3.3647476723085861        296.45076084739492     
   575.43576492945147        5.0920569342596504        3.3736848519591347        299.82444569935404     
   593.20611068527796        5.0913485454703755        3.3827977357734880        303.20724343512751     
   610.97645644110446        5.0906320232935558        3.3920536100986522        306.59929704522614     
   629.81302294228044        5.0898638051981049        3.4019910043353820        310.00128804956154     
   649.77978343352709        5.0890401910531402        3.4126301537665991        313.41391820332814     
   669.74654392477373        5.0882077175342655        3.4233427174202089        316.83726092074835     
   689.71330441602038        5.0873667988552995        3.4341001687659034        320.27136108951424     
   709.68006490726702        5.0865178235633088        3.4448770472222732        323.71623813673654     
   730.84483102798845        5.0856092917025837        3.4562953394588174        327.17253347619533     
   752.00959714870987        5.0846925509614271        3.4676842023288703        330.64021767852421     
   773.17436326943130        5.0837679878999378        3.4790217821982110        334.11923946072244     
   795.60901535739595        5.0827795964734896        3.4909584794029547        337.61019794012537     
   818.04366744536060        5.0817832613669989        3.5027926090695187        341.11299054919488     
   841.82439865860317        5.0807186823394810        3.5151981805721939        344.62818872976709     
   865.60512987184575        5.0796460752090713        3.5274435257660115        348.15563225553308     
   889.38586108508832        5.0785658509743437        3.5395084180464322        351.69514067357949     
   914.59343617112540        5.0774127142788963        3.5520717130206338        355.24721238660010     
   941.31346576232477        5.0761818001239023        3.5651096205906394        358.81232200719074     
   968.03349535352413        5.0749427717946052        3.5778433940090011        362.39016540119974     
   996.35672672019541        5.0736208062474972        3.5909704519075807        365.98113585310733     
   1026.3793519688670        5.0722104309282097        3.6044344339837924        369.58557028709112     
   1058.2033347324589        5.0707058229127897        3.6181592814731678        373.20372956856426     
   1090.0273174960507        5.0691921420082942        3.6312963339419864        376.83502590250623     
   1123.7607392254581        5.0675780007901654        3.6445119299016202        380.47953783240786     
   1157.4941609548655        5.0659546909519353        3.6569678042330587        384.13650563664089     
   1193.2515879880373        5.0642241371637944        3.6692567084425791        387.80576234508345     
   1231.1544606431994        5.0623791029122103        3.6811819650213127        391.48694431010478     
   1271.3315056576712        5.0604117400312054        3.6924965049117682        395.17944081501656     
   1313.9191733730113        5.0583134814969046        3.7028922722691036        398.88233308728564     
   1359.0621011512719        5.0560749053127632        3.7119879499912605        402.59432103727693     
   1404.2050289295325        5.0538217117705226        3.7190314236180484        406.31335246089498     
   1449.3479567077932        5.0515535048603368        3.7238958026623838        410.03724826355739     
   1494.4908844860538        5.0492697036817695        3.7264567875184325        413.76370505107582     
   1539.6338122643144        5.0469695590598160        3.7265937535855467        417.49029880466134     
   1587.4853157092707        5.0445119604126081        3.7238776388711918        421.21417644353255     
   1635.3368191542270        5.0420336680632003        3.7181697819938231        424.93234622552637     
   1683.1883225991833        5.0395332901894534        3.7093480602712421        428.64169428579760     
   1731.0398260441395        5.0370093139452701        3.6972995322053883        432.33899381800296     
   1778.8913294890958        5.0344601272010534        3.6819211593534411        436.02091497735643     
   1826.7428329340521        5.0318840393768696        3.6631203664311784        439.68403534378763     
   1857.3677951388240        5.0302238703668678        3.6496636272502911        443.33369897103790     
   1889.8302550758824        5.0284506484382048        3.6337747772128517        446.96747374825077     
   1922.2927150129408        5.0266634233548020        3.6162391627512727        450.58371291100207     
   1956.7029225462227        5.0247525560802648        3.5957777998576486        454.17949071085974     
   1993.1777425315015        5.0227077913424480        3.5719595960689512        457.75145030692869     
   2031.8410517158970        5.0205177524699671        3.5442961869802287        461.29574649390889     
   2072.8241594513561        5.0181697883392786        3.5122359110219743        464.80798240493084     
   2116.2662536509429        5.0156497988929392        3.4751573845780368        468.28313978950888     
   2159.7083478505297        5.0130973370717395        3.4349719038340107        471.71811169334291     
   2203.1504420501165        5.0105111058568825        3.3916739928641424        475.10978568620703     
   2230.9533823378520        5.0088417513424410        3.3626882825776208        478.47247396878464     
   2260.4244990428515        5.0070559272575856        3.3305318520829501        481.80300582086761     
   2289.8956157478510        5.0052534124996102        3.2969463427368071        485.09995216360443     
   2321.1349994551506        5.0033235485190115        3.2597442032782631        488.35969636688270     
   2354.2487461848882        5.0012558067729547        3.2185175857364290        491.57821395261914     
   2389.3493177184100        4.9990385921519191        3.1728143934832431        494.75102834610237     
   2424.4498892519318        4.9967953979959656        3.1251214360758670        497.87614978217823     
   2459.5504607854537        4.9945256781118417        3.0754552815203930        500.95160506369865     
   2494.6510323189755        4.9922289064670657        3.0238322611878168        503.97543732488646     
   2531.8576381445087        4.9897633356563462        2.9669355853590380        506.94237291024547     
   2571.2966403195737        4.9871143342494921        2.9042099455508494        509.84658285579633     
   2613.1019826251427        4.9842657603779230        2.8350474372257040        512.68163029302207     
   2654.9073249307116        4.9813758590711945        2.7632555214572352        515.44488581447933     
   2696.7126672362806        4.9784439714944604        2.6888739166125362        518.13375973109191     
   2741.0263300801839        4.9752882795074225        2.6071770066124618        520.74093673770437     
   2787.9988126947214        4.9718886561575673        2.5174452901354769        523.25838202783984     
   2834.9712953092589        4.9684337481242906        2.4246537623147462        525.68303579015458     
   2884.7621268806688        4.9647087070978193        2.3229452413419120        528.00598103149650     
   2937.5404083463632        4.9606888078819971        2.2114820913314848        530.21746312282801     
   2990.3186898120575        4.9565969176458058        2.0964808918239424        532.31394401465195     
   3046.2636681656936        4.9521780180521624        1.9707410630384323        534.28468507769037     
   3102.2086465193297        4.9476771465859670        1.8413029751072083        536.12598805279754     
   3158.1536248729658        4.9430939617955509        1.7083075052522623        537.83429555804980     
   3214.0986032266019        4.9384282480864119        1.5718963771514265        539.40619193520126     
   3270.0435815802380        4.9336799096064237        1.4322116356549166        540.83840357085614     
   3329.3452586350923        4.9285538639622581        1.2806360431574253        542.11903961401356     
   3388.6469356899465        4.9233351778485925        1.1257185744987437        543.24475818851226     
   3447.9486127448008        4.9180241460658891       0.96762546313727082        544.21238365164959     
   3507.2502897996551        4.9126211839664897       0.80652097700840586        545.01890462865799     
   3566.5519668545094        4.9071268195610038       0.64256706242294925        545.66147169108092     
   3629.4117445326547        4.9012008544849728       0.46576342288348560        546.12723511396439     
   3692.2715222108000        4.8951738341341864       0.28613309657566777        546.41336821054006     
   3755.1312998889453        4.8890467551034451       0.10385752983292189        546.51722574037296     
   3821.7626642277792        4.8824409423378121       -9.2116668282545791E-002   546.60934240865549     
   3888.3940285666131        4.8757254568114856      -0.29064806349077388        546.89999047214621     
   3955.0253929054470        4.8689018428154514      -0.49153809608982402        547.39152856823603     
   4025.6546391046113        4.8615492798027518      -0.70690359589428586        548.09843216413026     
   4100.5216400757254        4.8536237288569417      -0.93765058638373966        549.03608275051397     
   4175.3886410468394        4.8455689372761492       -1.1706049522918167        550.20668770280577     
   4250.2556420179535        4.8373876035166470       -1.4055253490667130        551.61221305187246     
   4325.1226429890676        4.8290825164133695       -1.6421808202833319        553.25439387215579     
   4399.9896439601816        4.8206565416410356       -1.8803507386288785        555.13474461078465     
   4474.8566449312957        4.8121126091900424       -2.1198246868873807        557.25456929767199     
   4549.7236459024098        4.8034537018306436       -2.3604022907784326        559.61497158845043     
   4624.5906468735238        4.7946828445045870       -2.6018930188300096        562.21686460728040     
   4699.4576478446379        4.7858030950841473       -2.8441158536710027        565.06098046095144     
   4778.8166688740184        4.7762718779086804       -3.1014919781649843        568.16247243911641     
   4858.1756899033990        4.7666256671983422       -3.3592950178752483        571.52176745699171     
   4942.2962521945428        4.7562758765383411       -3.6328323449957023        575.15459980198739     
   5026.4168144856867        4.7458056781768736       -3.9064337502997502        579.06103355228709     
   5110.5373767768306        4.7352194586848260       -4.1799110286347636        583.24094458092191     
   5199.7051728054430        4.7238728933789096       -4.4694509285601285        587.71039550948205     
   5288.8729688340554        4.7124063060167902       -4.7584509847070846        592.46884649418917     
