 #              _____________________  _______________________             #
 #              ___  __ \__  __ \_  / / /_  /___  ____/_  ___/             #
 #              __  / / /_  /_/ /  / / /_  __/_  __/  _____ \              #
 #              _  /_/ /_  _, _// /_/ / / /_ _  /___  ____/ /              #
 #              /_____/ /_/ |_| \____/  \__/ /_____/  /____/               #
 #                                                                         #
  
 #        time                      T            heat flux [W.L-2]   in    x              directions   cumulative flux
 #-----------------------------------------------------------------------------------------------

   0.0000000000000000        4.8296000000000001       -1.9843549003069616        1.9843549003069616     
   1.0000000000000000        4.8303580501452661       -2.2181222382004258        4.2024771385073869     
   1.9540000000000002        4.8310416657163948       -2.4226440621865946        6.6251212006939815     
   2.8641160000000001        4.8316606603177039       -2.6024072335468529        9.2275284342408348     
   3.8288389600000006        4.8322825827979123       -2.7772993768162828        12.004827811057117     
   4.8514452976000007        4.8329066755367176       -2.9467953393387436        14.951623150395861     
   5.9354080154560007        4.8335322514557149       -3.1104181890113214        18.062041339407180     
   7.0844084963833609        4.8341587086693600       -3.2677475720616971        21.329788911468878     
   8.3023490061663630        4.8347855438010745       -3.4184272448409794        24.748216156309859     
   9.5933659465363448        4.8354123634225612       -3.5621714997753204        28.310387656085179     
   10.961843903328527        4.8360388930880696       -3.6987702249828338        32.009157881068013     
   12.412430537528239        4.8366649834746687       -3.8280923729762968        35.837250254044307     
   13.950052369779934        4.8372906132051865       -3.9500876676335919        39.787337921677896     
   15.579931511966731        4.8379158880204933       -4.0647864510073504        43.852124372685246     
   17.307603402684734        4.8385410360774443       -4.1722976630859376        48.024422035771181     
   19.138935606845820        4.8391663992698692       -4.2728050589016942        52.297227094672877     
   21.080147743256571        4.8397924205895890       -4.3665618994044868        56.663788994077365     
   23.137832607851966        4.8404196276449873       -4.4538845071403799        61.117673501217745     
   25.318978564323086        4.8410486125119734       -4.5351452580731424        65.652818759290881     
   27.630993278182473        4.8416800080753557       -4.6107657912834021        70.263584550574279     
   30.081728874873424        4.8423144608881703       -4.6812114639880580        74.944796014562343     
   32.679508607365833        4.8429526002838514       -4.7469883651158122        79.691784379678154     
   35.433155123807786        4.8435950029630543       -4.8086445286211026        84.500428908299256     
   38.352020431236255        4.8442421514768785       -4.8667773534945002        89.367206261793754     
   41.446017657110431        4.8448943838690255       -4.9220496258650162        94.289255887658769     
   44.725654716537058        4.8455518301505647       -4.9752169182471286        99.264472805905896     
   48.202069999529286        4.8462143292050586       -5.0271694595330558        104.29164226543895     
   51.887070199501046        4.8468813171312926       -5.0789917499439845        109.37063401538293     
   55.793170411471110        4.8475516749517720       -5.1320431374926292        114.50267715287556     
   59.933636636159378        4.8482235201538435       -5.1880621579789681        119.69073931085453     
   64.322530834328944        4.8488939229023575       -5.2492965459000969        124.94003585675462     
   68.974758684388689        4.8495585243170156       -5.3186593410225633        130.25869519777717     
   73.906120205452012        4.8502110314908968       -5.3999092564606990        135.65860445423786     
   78.837481726515335        4.8508101728512329       -5.4915225877841669        141.15012704202204     
   84.064724938842460        4.8513823938488212       -5.6033123146913439        146.75343935671339     
   89.605602743909216        4.8519135023772755       -5.7417553483901882        152.49519470510359     
   95.146480548975973        4.8523632260336376       -5.9033927145870777        158.39858741969067     
   100.68735835404273        4.8527246947039089       -6.0912256471077120        164.48981306679838     
   106.22823615910949        4.8529903026698369       -6.3079672794278512        170.79778034622623     
   111.76911396417624        4.8531518975147829       -6.5560080627453399        177.35378840897158     
   117.64244443754700        4.8531961604846501       -6.8565044141337239        184.21029282310531     
   123.86817473932000        4.8530879879817421       -7.2195279923052933        191.42982081541061     
   130.46744885919938        4.8527843746161787       -7.6562977442173308        199.08611855962795     
   137.46267942627154        4.8522332204557062       -8.1790785090702744        207.26519706869823     
   144.87762382736801        4.8513721479350789       -8.8010046987727542        216.06620176747097     
   152.73746489253028        4.8501273930883251       -9.5358227141836043        225.60202448165458     
   161.06889642160229        4.8484128475772081       -10.397550570943803        235.99957505259837     
   169.90021384241862        4.8461293363610105       -11.400059130622934        247.39963418322131     
   179.26141030848393        4.8431642201563729       -12.556584429465349        259.95621861268665     
   188.62260677454924        4.8396391704337614       -13.799650822563358        273.75586943525002     
   197.98380324061455        4.8355442568848108       -15.121186007664555        288.87705544291458     
   207.90667149464377        4.8305579351516084       -16.600050408501549        305.47710585141613     
   217.82953974867300        4.8249263524070436       -18.146641185270727        323.62374703668684     
   227.75240800270223        4.8186552079701990       -19.750725043948325        343.37447208063514     
   238.27064835197319        4.8113017326804091       -21.503816536343642        364.87828861697881     
   249.41998312220042        4.8027348026923011       -23.407962629639744        388.28625124661858     
   260.56931789242765        4.7934217599575355       -25.345420636560156        413.63167188317874     
   271.71865266265490        4.7833927391567688       -27.304627200143031        440.93629908332179     
   282.86798743288216        4.7726809116070337       -29.275089947462572        470.21138903078435     
   294.01732220310942        4.7613216115239663       -31.247420421621722        501.45880945240606     
   305.16665697333667        4.7493515664590786       -33.213326116401412        534.67213556880745     
   316.31599174356393        4.7368082380543326       -35.165569579138356        569.83770514794583     
   327.46532651379118        4.7237292726108224       -37.097903939069852        606.93560908701568     
   338.61466128401844        4.7101520551121245       -39.004994184195944        645.94060327121167     
   349.76399605424569        4.6961133560856441       -40.882332345796321        686.82293561700794     
   360.91333082447295        4.6816490582922459       -42.726152938965789        729.54908855597375     
   372.06266559470021        4.6667939546413271       -44.533351034234180        774.08243959020797     
   383.88096045114105        4.6506482769963648       -46.404883126480783        820.48732271668871     
   396.40835299896838        4.6331304886634612       -48.336470421781264        868.82379313847002     
   408.93574554679572        4.6152522319378759       -50.213875618980730        919.03766875745077     
   421.46313809462305        4.5970538794134965       -52.035885108801438        971.07355386625227     
   433.99053064245038        4.5785731096836422       -53.801999428636712        1024.8755532948890     
   447.26956674314732        4.5587074193588801       -55.611524474164838        1080.4870777690537     
   460.54860284384426        4.5386033318267600       -57.359362153224254        1137.8464399222780     
   474.62438111058304        4.5170655759119036       -59.144384531744201        1196.9908244540222     
   489.54470607332615        4.4940230911387271       -60.962784336113522        1257.9536087901358     
   505.36025053383383        4.4694048683871905       -62.810471560706233        1320.7640803508421     
   522.12472766197197        4.4431403025912459       -64.683074623688128        1385.4471549745301     
   539.89507341779847        4.4151594629715003       -66.576013062840360        1452.0231680373704     
   557.66541917362497        4.3870816572206985       -68.381534874810001        1520.4047029121805     
   575.43576492945147        4.3589445730344423       -70.104264143700561        1590.5089670558809     
   593.20611068527796        4.3307809047905916       -71.748695377501221        1662.2576624333822     
   610.97645644110446        4.3026191099538194       -73.319083749699800        1735.5767461830819     
   629.81302294228044        4.2727990946822478       -74.905173930545374        1810.4819201136272     
   649.77978343352709        4.2412557520279286       -76.503179052381157        1886.9850991660085     
   669.74654392477373        4.2098050588605824       -78.022480192066155        1965.0075793580745     
   689.71330441602038        4.1784702115156875       -79.467486808146035        2044.4750661662206     
   709.68006490726702        4.1472709189644972       -80.842636828079620        2125.3177029943004     
   730.84483102798845        4.1143711912897869       -82.226979038934005        2207.5446820332345     
   752.00959714870987        4.0816600851781590       -83.541971667051314        2291.0866537002858     
   773.17436326943130        4.0491543784305799       -84.790099532748528        2375.8767532330344     
   795.60901535739595        4.0149495092281260       -86.039756442394776        2461.9165096754291     
   818.04366744536060        3.9810166393664166       -87.217563696519960        2549.1340733719489     
   841.82439865860317        3.9453754109350352       -88.388305110136841        2637.5223784820860     
   865.60512987184575        3.9100810455165300       -89.484742492992012        2727.0071209750781     
   889.38586108508832        3.8751500026582226       -90.510335426538390        2817.5174564016165     
   914.59343617112540        3.8385480287928582       -91.521622650250904        2909.0390790518672     
   941.31346576232477        3.8002448780433284       -92.512293085626624        3001.5513721374937     
   968.03349535352413        3.7624524435858380       -93.425403677631593        3094.9767758151252     
   996.35672672019541        3.7229807719690529       -94.310982785371095        3189.2877586004961     
   1026.3793519688670        3.6818151311362257       -95.162761562255383        3284.4505201627517     
   1058.2033347324589        3.6389412521400466       -95.977623596648584        3380.4281437594004     
   1090.0273174960507        3.5968148121500958       -96.719075805826307        3477.1472195652268     
   1123.7607392254581        3.5529654264509789       -97.438362913252163        3574.5855824784790     
   1157.4941609548655        3.5098849427617345       -98.100952258662034        3672.6865347371408     
   1193.2515879880373        3.4650476494586169       -98.745305707070131        3771.4318404442110     
   1231.1544606431994        3.4184135802801965       -99.369175461160282        3870.8010159053715     
   1271.3315056576712        3.3699427515088214       -99.971694520174339        3970.7727104255459     
   1313.9191733730113        3.3195928294095749       -100.55305938729380        4071.3257698128396     
   1359.0621011512719        3.2673068785478225       -101.11786784933827        4172.4436376621779     
   1404.2050289295325        3.2160585318056163       -101.63243596790626        4274.0760736300845     
   1449.3479567077932        3.1658242803595060       -102.09275129306150        4376.1688249231456     
   1494.4908844860538        3.1165944180636092       -102.49605536956111        4478.6648802927066     
   1539.6338122643144        3.0683533382340804       -102.84655180099142        4581.5114320936982     
   1587.4853157092707        3.0182722346921036       -103.17414349507438        4684.6855755887727     
   1635.3368191542270        2.9692119607895195       -103.45816313171004        4788.1437387204824     
   1683.1883225991833        2.9211807301228778       -103.68694962698204        4891.8306883474643     
   1731.0398260441395        2.8742020871269989       -103.85350659326478        4995.6841949407290     
   1778.8913294890958        2.8282699213845071       -103.96690963340701        5099.6511045741363     
   1826.7428329340521        2.7833083656632773       -104.05499394960016        5203.7060985237367     
   1857.3677951388240        2.7549004926010445       -104.10929797320708        5307.8153964969442     
   1889.8302550758824        2.7251666553498346       -104.16810074633247        5411.9834972432764     
   1922.2927150129408        2.6957883699010230       -104.22628285874046        5516.2097801020172     
   1956.7029225462227        2.6650340905300278       -104.28240622859315        5620.4921863306108     
   1993.1777425315015        2.6328623458465263       -104.33218178046891        5724.8243681110798     
   2031.8410517158970        2.5992329801917924       -104.37349363647434        5829.1978617475543     
   2072.8241594513561        2.5641021232954024       -104.40654315212576        5933.6044048996800     
   2116.2662536509429        2.5274579142673241       -104.41743609345927        6038.0218409931394     
   2159.7083478505297        2.4914234538420361       -104.40151150180749        6142.4233524949468     
   2203.1504420501165        2.4559902369014965       -104.36584939652752        6246.7892018914745     
   2230.9533823378520        2.4335521959447561       -104.33776004951733        6351.1269619409923     
   2260.4244990428515        2.4100282821434447       -104.30344584222091        6455.4304077832130     
   2289.8956157478510        2.3867577492509842       -104.26475665744532        6559.6951644406581     
   2321.1349994551506        2.3623692840347683       -104.21816883339096        6663.9133332740494     
   2354.2487461848882        2.3368151350144570       -104.16646446800279        6768.0797977420525     
   2389.3493177184100        2.3100502787924846       -104.10806380580894        6872.1878615478618     
   2424.4498892519318        2.2835990599944518       -104.04575663664484        6976.2336181845067     
   2459.5504607854537        2.2574648794957115       -103.97448679527754        7080.2081049797844     
   2494.6510323189755        2.2316603667432151       -103.88917933182219        7184.0972843116069     
   2531.8576381445087        2.2046976459393921       -103.77853028793625        7287.8758145995434     
   2571.2966403195737        2.1765730574606508       -103.63818696545690        7391.5140015650004     
   2613.1019826251427        2.1472914337334412       -103.46225876770495        7494.9762603327054     
   2654.9073249307116        2.1185240723685679       -103.27191306809368        7598.2481734007988     
   2696.7126672362806        2.0902013616781074       -103.09156987241272        7701.3397432732118     
   2741.0263300801839        2.0605375478757799       -102.94360495872493        7804.2833482319365     
   2787.9988126947214        2.0294364121304529       -102.81441606411674        7907.0977642960534     
   2834.9712953092589        1.9986696185701205       -102.69475691034052        8009.7925212063938     
   2884.7621268806688        1.9664551848006391       -102.56450682738910        8112.3570280337826     
   2937.5404083463632        1.9328746597179127       -102.38438508867264        8214.7414131224559     
   2990.3186898120575        1.8999158315546381       -102.16961938194657        8316.9110325044021     
   3046.2636681656936        1.8656695012643034       -101.92039786923360        8418.8314303736352     
   3102.2086465193297        1.8320433406416965       -101.67347023971956        8520.5049006133540     
   3158.1536248729658        1.7989400529440212       -101.44518993800450        8621.9500905513578     
   3214.0986032266019        1.7663087511523661       -101.22971926752707        8723.1798098188847     
   3270.0435815802380        1.7342043763559800       -100.99439152593274        8824.1742013448165     
   3329.3452586350923        1.7007411073290393       -100.73962834632771        8924.9138296911442     
   3388.6469356899465        1.6677785754615821       -100.49762631370517        9025.4114560048492     
   3447.9486127448008        1.6353457808543348       -100.24522498809853        9125.6566809929482     
   3507.2502897996551        1.6035724835873646       -99.945794674625063        9225.6024756675724     
   3566.5519668545094        1.5725034282382659       -99.611625259422013        9325.2141009269944     
   3629.4117445326547        1.5403147269976412       -99.242194381595681        9424.4562953085897     
   3692.2715222108000        1.5086019372149639       -98.931776349133116        9523.3880716577223     
   3755.1312998889453        1.4769977091913113       -98.736408832867284        9622.1244804905891     
   3821.7626642277792        1.4437232979699854       -98.546342149686936        9720.6708226402752     
   3888.3940285666131        1.4110949599273663       -98.259082612545896        9818.9299052528204     
   3955.0253929054470        1.3792058480983513       -97.920369689052507        9916.8502749418731     
   4025.6546391046113        1.3461681776101504       -97.548764523338875        10014.399039465212     
   4100.5216400757254        1.3118705551202741       -97.166570823464653        10111.565610288677     
   4175.3886410468394        1.2780988543545688       -96.826424633541862        10208.392034922219     
   4250.2556420179535        1.2449177055208858       -96.476100647861770        10304.868135570081     
   4325.1226429890676        1.2123096792530319       -96.122859765288396        10400.990995335369     
   4399.9896439601816        1.1801520263823728       -95.796878221477215        10496.787873556847     
   4474.8566449312957        1.1483314271643885       -95.514907729633322        10592.302781286480     
   4549.7236459024098        1.1169445455905940       -95.215629501272446        10687.518410787752     
   4624.5906468735238        1.0862222174399525       -94.865530229964463        10782.383941017717     
   4699.4576478446379        1.0562206448465854       -94.475345349215260        10876.859286366933     
   4778.8166688740184        1.0249790277523916       -94.091195947482305        10970.950482314414     
   4858.1756899033990       0.99371252418072564       -93.851024543423122        11064.801506857837     
   4942.2962521945428       0.96100991310449690       -93.551093747145188        11158.352600604981     
   5026.4168144856867       0.92894192834549716       -93.209607011564501        11251.562207616545     
   5110.5373767768306       0.89755325383189355       -92.831866318717147        11344.394073935262     
   5199.7051728054430       0.86508359423343306       -92.411191836794941        11436.805265772056     
   5288.8729688340554       0.83322674871178193       -92.004654516772405        11528.809920288828     
