 #              _____________________  _______________________             #
 #              ___  __ \__  __ \_  / / /_  /___  ____/_  ___/             #
 #              __  / / /_  /_/ /  / / /_  __/_  __/  _____ \              #
 #              _  /_/ /_  _, _// /_/ / / /_ _  /___  ____/ /              #
 #              /_____/ /_/ |_| \____/  \__/ /_____/  /____/               #
 #                                                                         #
  
 #        time                      T            heat flux [W.L-2]   in    x              directions   cumulative flux
 #-----------------------------------------------------------------------------------------------

   0.0000000000000000        10.000000000000000       -0.0000000000000000        0.0000000000000000     
   1.0000000000000000        10.000000000000000       -3.3892888495756747E-012   3.3892888495756747E-012
   1.9540000000000002        9.9999999999999982       -3.1633362596039634E-011   3.5022651445615312E-011
   2.8641160000000001        9.9999999999999876       -1.4856382790640044E-010   1.8358647935201576E-010
   3.8288389600000006        9.9999999999999307       -6.1628568914784379E-010   7.9987216849985957E-010
   4.8514452976000007        9.9999999999996998       -2.3041515362365329E-009   3.1040237047363925E-009
   5.9354080154560007        9.9999999999988773       -7.8258679536702684E-009   1.0929891658406662E-008
   7.0844084963833609        9.9999999999961702       -2.4387063035647172E-008   3.5316954694053837E-008
   8.3023490061663630        9.9999999999879119       -7.0522627737548618E-008   1.0583958243160245E-007
   9.5933659465363448        9.9999999999642988       -1.9112764704234181E-007   2.9696722947394426E-007
   10.961843903328527        9.9999999999005205       -4.8944211883408078E-007   7.8640934830802504E-007
   12.412430537528239        9.9999999997366924       -1.1923179243930057E-006   1.9787272727010308E-006
   13.950052369779934        9.9999999993342712       -2.7784955030127775E-006   4.7572227757138083E-006
   15.579931511966731        9.9999999983846664       -6.2222530488252909E-006   1.0979475824539100E-005
   17.307603402684734        9.9999999962238135       -1.3441902066188802E-005   2.4421377890727901E-005
   19.138935606845820        9.9999999914671580       -2.8101605554976562E-005   5.2522983445704466E-005
   21.080147743256571        9.9999999813110971       -5.7005909946236721E-005   1.0952889339194119E-004
   23.137832607851966        9.9999999602312357       -1.1246241158204707E-004   2.2199130497398828E-004
   25.318978564323086        9.9999999176173073       -2.1618508093331900E-004   4.3817638590730728E-004
   27.630993278182473        9.9999998335791567       -4.0558721622857428E-004   8.4376360213588150E-004
   30.081728874873424        9.9999996716818185       -7.4368736377379747E-004   1.5874509659096789E-003
   32.679508607365833        9.9999993666446372       -1.3343395207878255E-003   2.9217904866975044E-003
   35.433155123807786        9.9999988039724137       -2.3451079314265417E-003   5.2668984181240466E-003
   38.352020431236255        9.9999977869580103       -4.0408293759138982E-003   9.3077277940379448E-003
   41.446017657110431        9.9999959843718553       -6.8317101992023009E-003   1.6139437993240247E-002
   44.725654716537058        9.9999928492983354       -1.1340626545670411E-002   2.7480064538910658E-002
   48.202069999529286        9.9999874958749064       -1.8495027266428418E-002   4.5975091805339076E-002
   51.887070199501046        9.9999785160718879       -2.9649325681110339E-002   7.5624417486449408E-002
   55.793170411471110        9.9999637131513879       -4.6743709771793283E-002  0.12236812725824270     
   59.933636636159378        9.9999397222436581       -7.2504668147941653E-002  0.19487279540618435     
   64.322530834328944        9.9999014819648000      -0.11069098125742256       0.30556377666360690     
   68.974758684388689        9.9998415148080255      -0.16638625480215188       0.47195003146575876     
   73.906120205452012        9.9997489690834840      -0.24633514849321017       0.71828517995896890     
   79.133363417779137        9.9996083726284226      -0.35931529067296414        1.0776004706319331     
   84.674241222845893        9.9993980497148716      -0.51653067258910146        1.5941311432210346     
   90.547571696216650        9.9990881589479947      -0.73200551752883136        2.3261366607498659     
   96.773301997989648        9.9986383227205984       -1.0229508837814492        3.3490875445313151     
   99.476364677492242        9.9984181330119508       -1.1616749479725690        4.5107624925038845     
   102.34161111776500        9.9981543068277325       -1.3233636967927440        5.8341261892966285     
   105.37877234445412        9.9978374376656767       -1.5120095464523460        7.3461357357489749     
   108.59816324474458        9.9974560425014616       -1.7322702184770504        9.0784059542260245     
   112.01071759905247        9.9969961197498360       -1.9895602968530786        11.067966251079103     
   115.62802521461883        9.9964406242714716       -2.2901480484021466        13.358114299481249     
   119.46237128711918        9.9957688486788854       -2.6412549939542154        15.999369293435464     
   123.52677812396955        9.9949557007561722       -3.0511545128462330        19.050523806281696     
   127.83504937103093        9.9939708683265032       -3.5292643398617960        22.579788146143493     
   132.40181689291600        9.9927778656864064       -4.0862262324589116        26.666014378602405     
   137.24259046611419        9.9913329600825431       -4.7339644626383821        31.399978841240788     
   142.37381045370427        9.9895839828922650       -5.4857132968244446        36.885692138065231     
   147.81290364054973        9.9874690383316480       -6.3560024973566982        43.241694635421929     
   153.57834241860593        9.9849151326229446       -7.3605893747173594        50.602284010139286     
   159.68970752334550        9.9818367583318359       -8.5163263076503739        59.118610317789660     
   166.16775453436946        9.9781344814648225       -9.8409541533562059        68.959564471145868     
   173.03448436605484        9.9736935920246523       -11.352814722139637        80.312379193285508     
   180.31321798764137        9.9683828909146417       -13.070479479231766        93.382858672517273     
   188.02867562652307        9.9620536960362855       -15.012296689996322        108.39515536251359     
   196.20706072373767        9.9545391567218182       -17.195865072913950        125.59102043542754     
   204.87614892678516        9.9456539667362254       -19.637448520872645        145.22846895630019     
   214.06538242201549        9.9351945576581286       -22.351356977267812        167.57982593356800     
   223.80596992695965        9.9229398146486751       -25.349353952999181        192.92917988656717     
   234.13099268220046        9.9086523094565635       -28.640148272650610        221.56932815921778     
   245.07551680275571        9.8920799874650882       -32.229028986743110        253.79835714596089     
   256.67671237054429        9.8729581545273106       -36.117727022134609        289.91608416809549     
   268.97397967240016        9.8510114504746404       -40.304641563750742        330.22072573184624     
   282.00908301236740        9.8259555586756235       -44.785321546591256        375.00604727843751     
   295.82629255273270        9.7974986888313218       -49.552893367685897        424.55894064612340     
   310.47253466551990        9.7653432159565856       -54.598121195090627        479.15706184121404     
   325.99755130507430        9.7291880796084520       -59.908944437100388        539.06600627831449     
   342.45406894300197        9.6887325470135330       -65.469549150889065        604.53555542920355     
   359.89797763920529        9.6436817376232327       -71.259193168351644        675.79474859755521     
   378.38852085718082        9.5937539900491906       -77.251066025592905        753.04581462314809     
   397.98849666823492        9.5386898323289628       -83.411434521776940        836.45724914492507     
   418.76447102795225        9.4782620236783277       -89.699273085463375        926.15652223038842     
   440.78700384925264        9.4122848991963100       -96.067170419377533        1022.2236926497660     
   462.80953667055303        9.3447496739560538       -102.12093313325283        1124.3446257830187     
   486.15342146113142        9.2718084550750071       -108.17570945345693        1232.5203352364756     
   510.89793933914450        9.1933823298252495       -114.19111517604287        1346.7114504125184     
   537.12712828983842        9.1094073430533875       -120.13982182359682        1466.8512722361152     
   563.35631724053235        9.0249013649172447       -125.69808634940124        1592.5493585855163     
   591.15925752826786        8.9350078450278829       -131.19721531049876        1723.7465738960150     
   620.63037423326750        8.8396181881078455       -136.63104043913901        1860.3776143351540     
   650.10149093826715        8.7443287375040946       -141.70577570730811        2002.0833900424620     
   679.57260764326679        8.6493134234363112       -146.44715097658710        2148.5305410190490     
   710.81199135056647        8.5490966818914806       -151.11744705386488        2299.6479880729139     
   743.92573808030409        8.4436467445503176       -155.68273427499867        2455.3307223479123     
   779.02630961382602        8.3329874178731824       -160.10555148892803        2615.4362738368404     
   816.23291543935920        8.2171773270311839       -164.35763917581755        2779.7939130126579     
   855.67191761442439        8.0962765635088392       -168.42707184783629        2948.2209848604944     
   895.11091978948957        7.9773283939159061       -172.11697479517758        3120.3379596556720     
   936.91626209505864        7.8534933529538158       -175.65457588723024        3295.9925355429023     
   981.22992493896186        7.7248395220874473       -179.01178416849248        3475.0043197113946     
   1028.2024075534994        7.5915719843385219       -182.12968849718499        3657.1340082085794     
   1077.9932391249090        7.4539738859335998       -184.96596823360855        3842.0999764421881     
   1127.7840706963186        7.3200967492073286       -187.39452381767222        4029.4945002598602     
   1177.5749022677282        7.1897788815286496       -189.52265178055652        4219.0171520404165     
   1227.3657338391379        7.0627230797039422       -191.44725359508007        4410.4644056354964     
   1269.5883590116932        6.9571917993085908       -192.94683996049540        4603.4112455959921     
   1314.3443416946020        6.8477505962254073       -194.37580869391448        4797.7870542899063     
   1359.1003243775108        6.7407362708045486       -195.62868563243831        4993.4157399223450     
   1406.5416660213941        6.6300852056028052       -196.74344173808817        5190.1591816604332     
   1456.8294881639104        6.5159794855955706       -197.68939206656125        5387.8485737269948     
   1510.1345796349776        6.3985853099377632       -198.46144949540795        5586.3100232224024     
   1566.6379765943088        6.2778326978317720       -199.13475977255999        5785.4447829949622     
   1626.5315773712000        6.1534952465086601       -199.77465203563642        5985.2194350305990     
   1690.0187941947047        6.0255195258720260       -200.34700580428350        6185.5664408348821     
   1757.3152440276197        5.8941698386701411       -200.75706173102938        6386.3235025659114     
   1828.6494808505095        5.7600277379592475       -200.89330000080631        6587.2168025667179     
   1904.2637718827727        5.6238720065601484       -200.66949378628388        6787.8862963530019     
   1984.4149203769718        5.4856492889010759       -200.27939730122475        6988.1656936542267     
   2069.3751377808230        5.3447245224345608       -199.91044952282851        7188.0761431770552     
   2159.4329682289049        5.2011653950653276       -199.44689334613335        7387.5230365231882     
   2254.8942685038719        5.0551365711632927       -198.85962750414697        7586.3826640273355     
   2350.3555687788389        4.9152654873837776       -198.09391280507856        7784.4765768324141     
   2445.8168690538059        4.7813482107929417       -197.18639400812916        7981.6629708405435     
   2547.0058473452709        4.6453920774926232       -196.18438958283235        8177.8473604233759     
   2654.2661643342240        4.5072430284777996       -195.12833289356257        8372.9756933169392     
   2767.9621003425141        4.3673345796606711       -193.91132771964081        8566.8870210365803     
   2888.4797925113016        4.2269371902933468       -192.34027449303207        8759.2272955296121     
   3016.2285462102163        4.0861550325249372       -190.59315293025458        8949.8204484598664     
   3151.6422251310660        3.9426929948358547       -189.16544900051750        9138.9858974603831     
   3295.1807247871666        3.7980921877420877       -187.49002644197205        9326.4759239023551     
   3447.3315344226330        3.6527517446416082       -185.66230941321609        9512.1382333155707     
   3599.4823440580994        3.5148748030547923       -183.79848533085479        9695.9367186464260     
   3751.6331536935659        3.3832320312789728       -182.04867672781361        9877.9853953742404     
   3903.7839633290323        3.2588968961187401       -180.06746575460099        10058.052861128841     
   4065.0638215426270        3.1337733290337431       -178.07168605724920        10236.124547186089     
   4236.0204712490377        3.0073724672081807       -176.10324594598913        10412.227793132079     
   4417.2345199378324        2.8808097151596259       -173.93558597274713        10586.163379104826     
   4609.3214115479550        2.7536084056526788       -171.76278665360664        10757.926165758432     
   4801.4083031580776        2.6350028040633275       -169.31454530563747        10927.240711064069     
   5001.4083031580776        2.5177003615503226       -167.07422292157108        11094.314933985639     
   5201.4083031580776        2.4048737189214271       -165.12684537031788        11259.441779355957     
   5381.4083031580776        2.3086020672274667       -163.18665003188659        11422.628429387843     
   5572.2083031580778        2.2119612357429874       -161.13714394034449        11583.765573328188     
   5772.2083031580778        2.1098469447935333       -159.97156087829018        11743.737134206478     
   5972.2083031580778        2.0125177709281510       -158.31705403754898        11902.054188244027     
   6172.2083031580778        1.9208755536108446       -156.43693091030426        12058.491119154331     
   6372.2083031580778        1.8354406790239466       -154.35154355760864        12212.842662711939     
   6572.2083031580778        1.7555036004063371       -152.25042213046171        12365.093084842401     
   6732.2083031580778        1.6923062214292381       -151.00410633200730        12516.097191174409     
   6901.8083031580782        1.6270576614133969       -149.69138187255808        12665.788573046968     
   7071.4083031580785        1.5669915888280406       -147.84688100950967        12813.635454056477     
   7241.0083031580789        1.5087357210381578       -146.37243974677452        12960.007893803251     
   7420.7843031580787        1.4487935718853022       -144.92680418145130        13104.934697984703     
   7611.3468631580790        1.3827611780671620       -144.16563366706819        13249.100331651771     
   7811.3468631580790        1.3121189067784884       -143.50936742430034        13392.609699076071     
   8011.3468631580790        1.2509060936493528       -141.39150606158799        13534.001205137658     
   8211.3468631580799        1.1977489957061147       -139.00242925503318        13673.003634392691     
   8411.3468631580799        1.1392379056826614       -138.33617762922768        13811.339812021919     
   8611.3468631580799        1.0815396224005238       -137.31987606365422        13948.659688085574     
   8811.3468631580799        1.0201569096207712       -137.03564681669400        14085.695334902268     
   9011.3468631580799       0.96911179632610689       -134.93192856584801        14220.627263468115     
   9211.3468631580799       0.92375333987636910       -132.92553067420491        14353.552794142321     
   9411.3468631580799       0.87811891960795918       -131.65229821527370        14485.205092357593     
   9611.3468631580799       0.82692403270911763       -131.39914568610544        14616.604238043699     
   9811.3468631580799       0.77832598549297183       -130.39659198051535        14747.000830024215     
   10011.346863158080       0.72818043361155571       -129.85795676498788        14876.858786789204     
   10211.346863158080       0.68439506183799026       -128.33844777017026        15005.197234559375     
   10411.346863158080       0.64389147291779647       -126.91432334153077        15132.111557900906     
   10611.346863158080       0.60915677510792521       -125.03398426137372        15257.145542162280     
   10811.346863158080       0.56488523522682521       -125.21275988547274        15382.358302047753     
   11011.346863158080       0.51975973249572405       -124.83134516901137        15507.189647216765     
   11211.346863158080       0.48347626024211171       -123.15051427661876        15630.340161493383     
   11411.346863158080       0.44893785408905407       -121.90726105635831        15752.247422549741     
   11611.346863158080       0.42158636129759675       -119.87471303049655        15872.122135580237     
   11811.346863158080       0.39262376186456643       -118.81885656894748        15990.940992149184     
   12011.346863158080       0.35282671884591454       -119.41850107773294        16110.359493226917     
   12211.346863158080       0.31282953997158802       -119.24788953172710        16229.607382758644     
   12411.346863158080       0.27698951926705428       -118.32442412117878        16347.931806879824     
   12611.346863158080       0.24785701893314860       -115.65935953749188        16463.591166417315     
   12811.346863158080       0.21536246056404770       -115.29436399835491        16578.885530415668     
   13011.346863158080       0.18391162435077818       -114.51791111052550        16693.403441526192     
   13211.346863158080       0.15994389701153355       -112.87829441972551        16806.281735945919     
   13411.346863158080       0.12626652300662425       -113.45853548301987        16919.740271428938     
   13611.346863158080        8.7524202005387797E-002  -104.57728993160008        17024.317561360538     
   13811.346863158080        6.1708244507722387E-002  -104.26603232354957        17128.583593684089     
   14011.346863158080        3.6086408712073692E-002  -104.49159970984094        17233.075193393928     
   14211.346863158080        1.0838606316451838E-002  -104.73987443610986        17337.815067830037     
   14411.346863158080       -6.7084850475646052E-003  -104.19425419396573        17442.009322024001     
   14611.346863158080       -3.5203464846625676E-002  -99.683083120758809        17541.692405144760     
   14811.346863158080       -6.0422037833780029E-002  -100.24249722039904        17641.934902365159     
   15011.346863158080       -8.8581877674405562E-002  -101.66854477781888        17743.603447142978     
   15211.346863158080      -0.10515468298605180       -106.63481673304958        17850.238263876028     
