 #              _____________________  _______________________             #
 #              ___  __ \__  __ \_  / / /_  /___  ____/_  ___/             #
 #              __  / / /_  /_/ /  / / /_  __/_  __/  _____ \              #
 #              _  /_/ /_  _, _// /_/ / / /_ _  /___  ____/ /              #
 #              /_____/ /_/ |_| \____/  \__/ /_____/  /____/               #
 #                                                                         #
  
 #        time                      T            heat flux [W.L-2]   in    x              directions   cumulative flux
 #-----------------------------------------------------------------------------------------------

   0.0000000000000000        5.0792999999999999       -5.9531136824958040        5.9531136824958040     
   1.0000000000000000        5.0793006146775292       -5.9533009405233388        11.906414623019142     
   1.8999999999999999        5.0793011394833121       -5.9534564682006641        17.859871091219805     
   2.7100000000000000        5.0793015903321779       -5.9535869555256102        23.813458046745417     
   3.5200000000000000        5.0793020210412303       -5.9537090149010217        29.767167061646440     
   4.3300000000000001        5.0793024327422973       -5.9538237270303247        35.720990788676765     
   5.1400000000000006        5.0793028263514666       -5.9539321967435948        41.674922985420359     
   5.9500000000000011        5.0793032025581075       -5.9540355526048065        47.628958538025167     
   6.7600000000000016        5.0793035618145517       -5.9541349439292386        53.583093481954407     
   7.5700000000000021        5.0793039043268582       -5.9542315359143236        59.537325017868731     
   8.3800000000000026        5.0793042300470077       -5.9543265034667119        65.491651521335442     
   9.1900000000000031        5.0793045386667162       -5.9544210242022890        71.446072545537731     
   10.000000000000004        5.0793048296130019       -5.9545162710044668        77.400588816542196     
   10.810000000000004        5.0793051020463338       -5.9546134046853965        83.355202221227586     
   11.668600000000005        5.0793053686846479       -5.9547198429759689        89.309922064203562     
   12.578716000000005        5.0793056244237160       -5.9548381448030652        95.264760209006624     
   13.543438960000005        5.0793058623491634       -5.9549714970832976        101.21973170608992     
   14.508161920000004        5.0793060636687848       -5.9551145145250430        107.17484622061497     
   15.530768257600005        5.0793062311961652       -5.9552788857950558        113.13012510641002     
   16.614730975456006        5.0793063508303149       -5.9554695731340752        119.08559467954410     
   17.763731456383365        5.0793064040039839       -5.9556924501353361        125.04128712967943     
   18.912731937310724        5.0793063741809101       -5.9559380839221605        130.99722521360158     
   20.130672447093726        5.0793062371914077       -5.9562260797603930        136.95345129336198     
   21.421689387463708        5.0793059580610738       -5.9565644131517868        142.91001570651378     
   22.790167344255888        5.0793054920245888       -5.9569620534073806        148.86697775992116     
   24.158645301048068        5.0793048351639936       -5.9574000427819334        154.82437780270308     
   25.609231935247781        5.0793038988120136       -5.9579105964397900        160.78228839914289     
   27.146853767499476        5.0793026049658270       -5.9585041526155686        166.74079255175846     
   28.684475599751170        5.0793009776179181       -5.9591497459352309        172.69994229769370     
   30.314354741937969        5.0792988390491907       -5.9598913180947592        178.65983361578844     
   32.042026632655976        5.0792960610612452       -5.9607393277348759        184.62057294352331     
   33.769698523373982        5.0792927259545646       -5.9616461356630088        190.58221907918633     
   35.601030727535068        5.0792885107433872       -5.9626687878783828        196.54488786706472     
   37.432362931696154        5.0792835630054398       -5.9637475938457642        202.50863546091048     
   39.373575068106902        5.0792774348312975       -5.9649471951036448        208.47358265601412     
   41.314787204517650        5.0792703654045326       -5.9661953832836607        214.43977803929778     
   43.372472069113044        5.0792617491037619       -5.9675636510195504        220.40734169031734     
   45.430156933708439        5.0792519493502244       -5.9689675352257900        226.37630922554314     
   47.611302890179559        5.0792401648307672       -5.9704841018681130        232.34679332741126     
   49.792448846650679        5.0792269225460807       -5.9720177385383595        238.31881106594963     
   52.104463560510062        5.0792111822504307       -5.9736492433406569        244.29246030929028     
   54.416478274369446        5.0791936807712705       -5.9752738672129206        250.26773417650321     
   56.867213871060393        5.0791730905007073       -5.9769737278600541        256.24470790436328     
   59.317949467751340        5.0791504112013151       -5.9786378693350102        262.22334577369827     
   61.915729200243746        5.0791239745061993       -5.9803467596460846        268.20369253334434     
   64.513508932736158        5.0790951026501228       -5.9819869961706438        274.18567952951497     
   67.111288665228571        5.0790637670451639       -5.9835463486300995        280.16922587814508     
   69.864935181670518        5.0790277601916181       -5.9850953330951349        286.15432121124024     
   72.618581698112465        5.0789889507611399       -5.9865291252977748        292.14085033653799     
   75.537447005540926        5.0789446618411622       -5.9879078377635127        298.12875817430148     
   78.456312312969388        5.0788972317836647       -5.9891357376260235        304.11789391192752     
   81.375177620397849        5.0788466802796171       -5.9902047678973158        310.10809867982482     
   84.294042927826311        5.0787930359875935       -5.9911084318595123        316.09920711168434     
   87.212908235254773        5.0787363354873598       -5.9918416543070263        322.09104876599139     
   90.131773542683234        5.0786766222975412       -5.9924006441736397        328.08344941016503     
   93.050638850111696        5.0786139459608775       -5.9927827613982627        334.07623217156328     
   95.969504157540158        5.0785483611984592       -5.9929863900473164        340.06921856161057     
   98.888369464968619        5.0784799271325873       -5.9930108190401965        346.06222938065076     
   101.80723477239708        5.0784087065766652       -5.9928561313035127        352.05508551195430     
   104.72610007982554        5.0783347653896431       -5.9925231017568237        358.04760861371113     
   107.64496538725400        5.0782581720531379       -5.9920131396404415        364.03962175335158     
   110.73896261312818        5.0781740865820311       -5.9912759789263248        370.03089773227794     
   113.83295983900236        5.0780871904882732       -5.9903451170128985        376.02124284929084     
   117.11259689842899        5.0779920258387685       -5.9891446494679590        382.01038749875880     
   120.58901218142121        5.0778878431792327       -5.9876372430096172        387.99802474176840     
   124.27401238139296        5.0777738408535829       -5.9857822908900804        393.98380703265849     
   128.18011259336302        5.0776491645529092       -5.9835358663410139        399.96734289899950     
   132.32057881805130        5.0775129074567538       -5.9808507209376343        405.94819361993711     
   136.70947301622087        5.0773641110424608       -5.9776763390704888        411.92586995900763     
   141.36170086628061        5.0772017666276295       -5.9739590631129040        417.89982902212051     
   146.29306238734395        5.0770248176925268       -5.9696423088959092        423.86947133101643     
   151.52030559967108        5.0768321630012014       -5.9646668984060653        429.83413822942248     
   157.06118340473782        5.0766226601084181       -5.9589715147074704        435.79310974412994     
   162.60206120980456        5.0764082781917388       -5.9528821080270653        441.74599185215698     
   168.14293901487130        5.0761894063383775       -5.9464257489502259        447.69241760110719     
   173.68381681993804        5.0759664129012432       -5.9396291911062278        453.63204679221343     
   179.22469462500479        5.0757396453809775       -5.9325188945383216        459.56456568675173     
   184.76557243007153        5.0755094304733674       -5.9251210735916686        465.48968676034337     
   190.30645023513827        5.0752760745381531       -5.9174617558495761        471.40714851619293     
   196.17978070850901        5.0750255261509025       -5.9090799526757554        477.31622846886870     
   202.05311118187976        5.0747721008765536       -5.9004660735137024        483.21669454238241     
   208.27884148365277        5.0745005795126783       -5.8911115154341971        489.10780605781662     
   214.87811560353214        5.0742098878459938       -5.8809885384075722        494.98879459622418     
   221.47738972341153        5.0739166492243921       -5.8707032918389377        500.85949788806312     
   228.07666384329093        5.0736211588770352       -5.8603014148597827        506.71979930292292     
   234.67593796317033        5.0733236765438674       -5.8498294378951909        512.56962874081808     
   241.27521208304972        5.0730244274442153       -5.8393349080225727        518.40896364884065     
   247.87448620292912        5.0727236032256187       -5.8288664870167590        524.23783013585739     
   254.47376032280852        5.0724213628929009       -5.8184740210121344        530.05630415686949     
   261.07303444268791        5.0721178337197816       -5.8082085815047195        535.86451273837417     
   267.67230856256731        5.0718131121468604       -5.7981224781135161        541.66263521648773     
   274.27158268244671        5.0715072646705934       -5.7882692440824064        547.45090446057009     
   280.87085680232610        5.0712003287282243       -5.7787035959816171        553.22960805655168     
   287.47013092220550        5.0708923135835047       -5.7694813694275542        558.99908942597926     
   294.06940504208490        5.0705832012177261       -5.7606594329400567        564.75974885891935     
   300.66867916196429        5.0702729472300181       -5.7522955822433675        570.51204444116274     
   307.26795328184369        5.0699614817501848       -5.7444484174648283        576.25649285862755     
   313.86722740172308        5.0696487103665921       -5.7371772057375390        581.99367006436512     
   320.46650152160248        5.0693345150708859       -5.7305417317382998        587.72421179610342     
   327.06577564148188        5.0690187552205082       -5.7246021386509582        593.44881393475441     
   333.66504976136127        5.0687012685193045       -5.7194187619692256        599.16823269672363     
   340.26432388124067        5.0683818720157916       -5.7150519584482549        604.88328465517191     
   346.86359800112007        5.0680603631844665       -5.7115619093450194        610.59484656451696     
   353.85882856819222        5.0677169255977637       -5.7089188977059813        616.30376546222294     
   361.27377296928870        5.0673495744747346       -5.7073883723320176        622.01115383455499     
   369.13361403445094        5.0669560253103674       -5.7072928192139720        627.71844665376898     
   377.46504556352295        5.0665336298044013       -5.7090221349511436        633.42746878872015     
   385.79647709259496        5.0661054041886384       -5.7126942483318022        639.14016303705193     
   394.12790862166696        5.0656707210292486       -5.7184180432993639        644.85858108035131     
   402.45934015073897        5.0652289255991789       -5.7262986442864223        650.58487972463774     
   410.79077167981097        5.0647793392329996       -5.7364370284155237        656.32131675305322     
   419.12220320888298        5.0643212626279679       -5.7489296778869567        662.07024643094019     
   427.45363473795499        5.0638539790767849       -5.7638682737221076        667.83411470466228     
   435.78506626702699        5.0633767576184647       -5.7813394314697115        673.61545413613203     
   443.28335464319179        5.0629386678074129       -5.7991746340611385        679.41462877019319     
   451.23154032192650        5.0624639897910315       -5.8205185558268333        685.23514732602007     
   459.65661714138525        5.0619484736490561       -5.8459565775469784        691.08110390356705     
   468.58719857001154        5.0613872075124924       -5.8761620301022672        696.95726593366931     
   478.05361488435540        5.0607745021987753       -5.9119071463537241        702.86917308002307     
   488.08801617755989        5.0601037569759644       -5.9540747247701811        708.82324780479325     
   498.72448154835666        5.0593673058264388       -6.0036699300784786        714.82691773487170     
   509.36094691915343        5.0586038592653537       -6.0582393492910036        720.88515708416276     
   519.99741228995026        5.0578119128581394       -6.1178444828503906        727.00300156701314     
   530.63387766074709        5.0569899963690013       -6.1825323881478544        733.18553395516096     
   541.27034303154392        5.0561366787688247       -6.2523361638260724        739.43787011898701     
   551.90680840234074        5.0552505726346064       -6.3272755026381811        745.76514562162515     
   562.54327377313757        5.0543303379613045       -6.4073572998400650        752.17250292146525     
   573.17973914393440        5.0533746854110255       -6.4925763050170380        758.66507922648225     
   583.81620451473123        5.0523823790275300       -6.5829158062537951        765.24799503273607     
   594.45266988552805        5.0513522384463538       -6.6783483366263656        771.92634336936248     
   605.08913525632488        5.0502831406323967       -6.7788363940096836        778.70517976337214     
   615.72560062712171        5.0491740211778211       -6.8843331661652707        785.58951292953736     
   626.36206599791853        5.0480238751936337       -6.9947832539638943        792.58429618350124     
   636.99853136871536        5.0468317578284747       -7.1101233864121367        799.69441956991341     
   647.63499673951219        5.0455967794012464       -7.2302842529421625        806.92470382285558     
   658.90965003255678        5.0442385762186142       -7.3629769806236798        814.28768080347925     
   670.18430332560138        5.0428303396410765       -7.5008936861365623        821.78857448961583     
   681.45895661864597        5.0413712346509154       -7.6439301354273494        829.43250462504318     
   693.41008910927326        5.0397665475441800       -7.8011652914834242        837.23366991652665     
   705.36122159990055        5.0381030054976499       -7.9638812367913223        845.19755115331793     
   718.02942203996543        5.0362726823653015       -8.1423448156005520        853.33989596891843     
   731.45771450643417        5.0342564206283846       -8.3380293941436054        861.67792536306206     
   745.69170452089111        5.0320327797643039       -8.5525153960475304        870.23044075910957     
   760.77973393621539        5.0295778105651356       -8.7874870525958979        879.01792781170548     
   775.86776335153968        5.0270242611558791       -9.0297615024734874        888.04768931417891     
   790.95579276686396        5.0243716538751535       -9.2790202189525957        897.32670953313152     
   806.04382218218825        5.0216196796884827       -9.5349443287164348        906.86165386184791     
   821.13185159751254        5.0187681883595703       -9.7972159660261298        916.65886982787401     
   836.21988101283682        5.0158171787994270       -10.065519426366093        926.72438925424012     
   851.30791042816111        5.0127667896775847       -10.339542133716957        937.06393138795704     
   866.39593984348539        5.0096172903607199       -10.618975438801998        947.68290682675899     
   881.48396925880968        5.0063690722246328       -10.903515268087158        958.58642209484617     
   896.57199867413397        5.0030226403674440       -11.192862644351596        969.77928473919781     
   911.66002808945825        4.9995786057361347       -11.486724099157472        981.26600883835533     
   926.74805750478254        4.9960376776661697       -11.784811995964738        993.05082083432012     
   941.83608692010682        4.9924006568245556       -12.086844780483121        1005.1376656148033     
   956.92411633543111        4.9886684285400822       -12.392547172627605        1017.5302127874309     
   972.01214575075539        4.9848419565000270       -12.701650312387963        1030.2318630998188     
   987.10017516607968        4.9809222399251194       -13.013897853003568        1043.2457609528224     
   1003.0934863463235        4.9766639227727199       -13.348103480710728        1056.5938644335331     
   1020.0463961973819        4.9720356225321840       -13.705623725221923        1070.2994881587549     
   1036.9993060484403        4.9672945493237624       -14.066072348699064        1084.3655605074539     
   1053.9522158994987        4.9624424808439977       -14.429127687185469        1098.7946881946393     
   1071.9223003416207        4.9571768953021333       -14.816508194664554        1113.6111963893038     
   1090.9705898502700        4.9514606556140377       -15.229553623255477        1128.8407500125593     
   1111.1617767294383        4.9452536015841151       -15.669596325974656        1144.5103463385340     
   1131.3529636086066        4.9389021685363472       -16.111392095725655        1160.6217384342597     
   1151.5441504877749        4.9324099633659673       -16.554491463956566        1177.1762298982162     
   1171.7353373669432        4.9257806502897834       -16.998468033973086        1194.1746979321892     
   1191.9265242461115        4.9190179353283874       -17.442918832474312        1211.6176167646636     
   1212.1177111252798        4.9121255512620934       -17.887464574439647        1229.5050813391033     
   1232.3088980044481        4.9051072432616696       -18.331749745564057        1247.8368310846674     
   1252.5000848836164        4.8979667554454132       -18.775442432171090        1266.6122735168385     
   1272.6912717627847        4.8907078186005464       -19.218233871927211        1285.8305073887657     
   1292.8824586419530        4.8833341392408496       -19.659837743759255        1305.4903451325249     
   1313.0736455211213        4.8758493900787503       -20.099989249580887        1325.5903343821058     
   1333.2648324002896        4.8682572018946724       -20.538444057886011        1346.1287784399917     
   1353.4560192794579        4.8605611567087950       -20.974977180447937        1367.1037556204396     
   1373.6472061586262        4.8527647821092232       -21.409381843660750        1388.5131374641003     
   1393.8383930377945        4.8448715465632048       -21.841468402869690        1410.3546058669699     
   1414.0295799169628        4.8368848555380897       -22.271063328527688        1432.6256691954975     
   1434.2207667961311        4.8288080482923155       -22.698008265275071        1455.3236774607726     
   1454.4119536752994        4.8206443952542219       -23.122159139569320        1478.4458366003419     
