 #              _____________________  _______________________             #
 #              ___  __ \__  __ \_  / / /_  /___  ____/_  ___/             #
 #              __  / / /_  /_/ /  / / /_  __/_  __/  _____ \              #
 #              _  /_/ /_  _, _// /_/ / / /_ _  /___  ____/ /              #
 #              /_____/ /_/ |_| \____/  \__/ /_____/  /____/               #
 #                                                                         #
  
 #        time                      T            heat flux [W.L-2]   in    x              directions   cumulative flux
 #-----------------------------------------------------------------------------------------------

   0.0000000000000000        6.7000000000000002       -0.0000000000000000        0.0000000000000000     
   1.0000000000000000        6.6999999999999975        1.2781182792863278E-012   1.2781182792863278E-012
   1.9540000000000002        6.6999999999999762        1.4059301072149599E-011   1.5337419351435928E-011
   2.8641160000000001        6.6999999999998554        8.3716747293254176E-011   9.9054166644690104E-011
   3.8288389600000006        6.6999999999991662        4.7545999989450524E-010   5.7451416653919531E-010
   4.8514452976000007        6.6999999999955415        2.5083071230991765E-009   3.0828212896383720E-009
   5.9354080154560007        6.6999999999784379        1.1947210615623432E-008   1.5030031905261803E-008
   7.0844084963833609        6.6999999999058586        5.1322839504640267E-008   6.6352871409902067E-008
   8.3023490061663630        6.6999999996270887        1.9980567436271625E-007   2.6615854577261831E-007
   9.5933659465363448        6.6999999986499610        7.1020048116674939E-007   9.7635902693936769E-007
   10.961843903328527        6.6999999954991498        2.3224099316377744E-006   3.2987689585771419E-006
   12.412430537528239        6.6999999860842667        7.0363913299174259E-006   1.0335160288494568E-005
   13.950052369779934        6.6999999598467586        1.9877447559783379E-005   3.0212607848277945E-005
   15.579931511966731        6.6999998912667369        5.2649899377981727E-005   8.2862507226259672E-005
   17.307603402684734        6.6999997223038710        1.3140140708155457E-004   2.1426391430781424E-004
   19.138935606845820        6.6999993282100965        3.1035509933560328E-004   5.2461901364341749E-004
   21.080147743256571        6.6999984546277309        6.9639259362078187E-004   1.2210116072641994E-003
   23.137832607851966        6.6999966078883642        1.4896625791809258E-003   2.7106741864451251E-003
   25.318978564323086        6.6999928731886680        3.0472806388724140E-003   5.7579548253175392E-003
   27.630993278182473        6.6999856275235929        5.9779662673335940E-003   1.1735921092651133E-002
   30.081728874873424        6.6999721071038802        1.1275325822528890E-002   2.3011246915180021E-002
   32.679508607365833        6.6999477841116679        2.0495840964934977E-002   4.3507087880114995E-002
   35.433155123807786        6.6999055069653117        3.5984099606481308E-002   7.9491187486596310E-002
   38.352020431236255        6.6998343634850404        6.1142393173152974E-002  0.14063358065974929     
   41.446017657110431        6.6997182387989813       0.10073480973705815       0.24136839039680744     
   44.725654716537058        6.6995340597300110       0.16120820937591704       0.40257659977272447     
   48.202069999529286        6.6992497436727652       0.25100518337259037       0.65358178314531479     
   51.887070199501046        6.6988219013605743       0.38083812839135550        1.0344199115366703     
   55.793170411471110        6.6981933730675873       0.56389162331628717        1.5983115348529575     
   59.933636636159378        6.6972907108813127       0.81591935423580420        2.4142308890887616     
   64.322530834328944        6.6960217365509136        1.1552097861971797        3.5694406752859411     
   68.974758684388689        6.6942733287510752        1.6023981769561413        5.1718388522420824     
   73.906120205452012        6.6919095781656583        2.1801223389052962        7.3519611911473781     
   79.133363417779137        6.6887704679473856        2.9125186337471303        10.264479824894508     
   84.674241222845893        6.6846711676549759        3.8245898821860909        14.089069707080599     
   90.547571696216650        6.6794020830844172        4.9414496610799183        19.030519368160519     
   96.773301997989648        6.6727296136419438        6.2875246632127713        25.318044031373290     
   103.37257611786903        6.6643978258406911        7.8856730220950082        33.203717053468296     
   110.36780668494117        6.6541306239601248        9.7564288347051971        42.960145888173493     
   117.78275108603765        6.6416351430382257        11.917086809370284        54.877232697543775     
   125.64259215119992        6.6266047206562710        14.381300592455686        69.258533289999463     
   133.97402368027193        6.6087240404357566        17.158110249975017        86.416643539974473     
   142.80534110108826        6.5876726017084142        20.253274197451404        106.66991773742588     
   152.16653756715357        6.5631320675912308        23.664872292968660        130.33479003039454     
   162.08940582118279        6.5347880938496612        27.386039266381221        157.72082929677578     
   172.60764617045376        6.5023361226375389        31.406731924184388        189.12756122096016     
   183.75698094068099        6.4654865003073336        35.710621778399961        224.83818299936013     
   195.57527579712186        6.4239731248924432        40.275833136418214        265.11401613577834     
   208.10266834494917        6.3775648130660691        45.073408277675526        310.18742441345387     
   221.38170444564611        6.3260805384337040        50.065760638368758        360.25318505182264     
   235.45748271238489        6.2694064371925133        55.205695567817131        415.45888061963979     
   250.37780767512800        6.2075079509940760        60.437349137173292        475.89622975681306     
   266.19335213563568        6.1404298436688736        65.700115753328305        541.59634551014142     
   282.95782926377382        6.0682899476568792        70.932607389303314        612.52895289944468     
   300.72817501960026        5.9912687330675221        76.076097622242145        688.60505052168685     
   319.56474152077629        5.9096089812747579        81.074092813300297        769.67914333498720     
   339.53150201202288        5.8236170046014770        85.872071418790142        855.55121475377734     
   360.69626813274425        5.7336441128220876        90.422223836755677        945.97343859053308     
   383.13092022070890        5.6400477788067480        94.690525138049139        1040.6639637285823     
   406.91165143395148        5.5431879655899046        98.652218269270264        1139.3161819978525     
   432.11922651998856        5.4434511544124877        102.28368761845701        1241.5998696163094     
   458.83925611118786        5.3412561571203137        105.56239014387837        1347.1622597601879     
   487.16248747785914        5.2369989767286214        108.47917734684664        1455.6414371070346     
   517.18511272653075        5.1310458562725625        111.03381035407124        1566.6752474611058     
   549.00909549012260        5.0237345709902712        113.23189715495204        1679.9071446160578     
   582.74251721952999        4.9153312641362907        115.09249951644694        1794.9996441325047     
   618.49994425270188        4.8060253021124124        116.64340044724982        1911.6430445797546     
   656.40281690786401        4.6960616073989119        117.89281229052659        2029.5358568702811     
   696.57986192233591        4.5857219664931783        118.84437795005390        2148.3802348203349     
   739.16752963767613        4.4751729709161214        119.52698735154617        2267.9072221718811     
   784.31045741593675        4.3643512677628156        119.99992461571179        2387.9071467875929     
   832.16196086089303        4.2532554416387018        120.28668844159803        2508.1938352291909     
   882.88455451254663        4.1421422194824329        120.36210107442709        2628.5559363036182     
   936.65050378329943        4.0313846196361869        120.20187656005477        2748.7578128636728     
   993.64241001029745        3.9209662226862347        119.86235083843169        2868.6201637021045     
   1054.0538306109154        3.8109120870246662        119.36700369495028        2987.9871673970547     
   1118.0899364475704        3.7013043882513204        118.72728257686704        3106.7144499739215     
   1185.9682086344246        3.5919478843497092        117.99237602249480        3224.7068259964162     
   1257.9191771524902        3.4830098395931128        117.13209099707282        3341.8389169934890     
   1334.1872037816397        3.3747326432168361        116.13350991278220        3457.9724269062713     
   1415.0313120085382        3.2673740774860529        114.99392970411490        3572.9663566103864     
   1500.7260667290504        3.1608591604278415        113.76738300503487        3686.7337396154212     
   1591.5625067327935        3.0545448018622654        112.54596978992399        3799.2797094053453     
   1687.8491331367611        2.9484116535420632        111.28746457465603        3910.5671739800014     
   1789.9129571249669        2.8421601264037530        110.03663221204609        4020.6038061920476     
   1898.1006105524650        2.7356435421510161        108.79689841196158        4129.4007046040088     
   2012.7795231856130        2.6292093166631822        107.50167045148316        4236.9023750554916     
   2134.3391705767499        2.5231166715763611        106.13271519141578        4343.0350902469072     
   2263.1923968113551        2.4178816078867573        104.66925434811445        4447.7043445950212     
   2399.7768166200367        2.3134161821190311        103.16406574707274        4550.8684103420937     
   2544.5563016172391        2.2076099399049478        101.81708545289973        4652.6854957949936     
   2698.0225557142735        2.1014328123961281        100.46504421506924        4753.1505400100632     
   2860.6967850571300        1.9973307177103019        98.832915795225091        4851.9834558052880     
   3033.1314681605581        1.8898038328140723        97.652683037415215        4949.6361388427031     
   3215.9122322501917        1.7841626391187109        96.142883356280876        5045.7790221989835     
   3409.6598421852032        1.6765487785014968        94.839314874416061        5140.6183370733997     
   3609.6598421852032        1.5747519135021235        93.224254341395195        5233.8425914147947     
   3809.6598421852032        1.4772640037985560        91.874115597178729        5325.7167070119731     
   4009.6598421852032        1.3822585987167098        90.860535677725835        5416.5772426896992     
   4209.6598421852032        1.2934728481623361        89.548576145666715        5506.1258188353659     
   4409.6598421852032        1.2090094077147087        88.382283927901952        5594.5081027632677     
   4609.6598421852032        1.1335195708478656        86.751264355316749        5681.2593671185841     
   4809.6598421852032        1.0592531231292555        85.567023945441520        5766.8263910640253     
   5009.6598421852032       0.98694767029361152        84.606373281351011        5851.4327643453762     
   5209.6598421852032       0.92124762015005823        83.147295435360618        5934.5800597807365     
   5409.6598421852032       0.84852398834800780        82.985797222211403        6017.5658570029482     
   5609.6598421852032       0.78362400116992692        81.851356180453422        6099.4172131834021     
   5809.6598421852032       0.72090339463782338        80.925685457065072        6180.3428986404670     
   6009.6598421852032       0.66682061704379869        79.430071859549585        6259.7729705000165     
   6209.6598421852032       0.61408301161405543        78.304591646693240        6338.0775621467101     
   6409.6598421852032       0.55863580693656378        77.767946406363933        6415.8455085530741     
   6609.6598421852032       0.50464084611629945        77.059910549391972        6492.9054191024661     
   6809.6598421852032       0.45019820125826904        76.470937943093077        6569.3763570455594     
   7009.6598421852032       0.40679808952753921        74.975855816282404        6644.3522128618415     
   7209.6598421852032       0.34686519189843368        75.698464753422570        6720.0506776152642     
   7409.6598421852032       0.30212712659506569        74.206635115833890        6794.2573127310980     
   7609.6598421852032       0.26003413725201824        73.231124942527359        6867.4884376736254     
   7809.6598421852032       0.21805977122845127        72.400964653003214        6939.8894023266284     
   8009.6598421852032       0.16915637839575762        72.406560060003983        7012.2959623866327     
   8209.6598421852032       0.12714612795675403        71.592412382908776        7083.8883747695418     
   8409.6598421852032        8.7135096802233622E-002   70.755919031529260        7154.6442938010714     
   8609.6598421852032        4.4550082068438551E-002   70.519632745602266        7225.1639265466738     
   8809.6598421852032        5.0407498976866999E-003   69.890437279753243        7295.0543638264271     
   9009.6598421852032       -3.2369558406625656E-002   75.231992202373249        7370.2863560288006     
   9209.6598421852032       -7.2114940776123210E-002   73.877303641797724        7444.1636596705985     
   9409.6598421852032      -0.10722055353537049        72.219622175386078        7516.3832818459841     
   9609.6598421852032      -0.13990739369823829        73.809599274145370        7590.1928811201296     
   9809.6598421852032      -0.18504582878048012        87.676383354278869        7677.8692644744087     
   10009.659842185203      -0.23126253705940442        124.17134923131599        7802.0406137057244     
   10209.659842185203      -0.27660013276129769        179.87570643984563        7981.9163201455704     
   10409.659842185203      -0.33011524280975568        208.27974418249264        8190.1960643280627     
   10609.659842185203      -0.38674494450992408        235.41298731249699        8425.6090516405602     
   10809.659842185203      -0.43473769837521392        262.40331708961168        8688.0123687301711     
   11009.659842185203      -0.47881303375083706        254.88791145555498        8942.9002801857259     
   11209.659842185203      -0.52423130945568530        252.66135696597274        9195.5616371516990     
   11409.659842185203      -0.56574660187113568        250.24940601518054        9445.8110431668792     
   11609.659842185203      -0.60551398334669426        249.58132391735529        9695.3923670842341     
   11809.659842185203      -0.64638705118256556        247.46366462779667        9942.8560317120300     
   12009.659842185203      -0.68457513379464441        246.98036828276076        10189.836399994791     
   12209.659842185203      -0.72072379614054438        246.59709758094573        10436.433497575736     
   12409.659842185203      -0.75625127622616228        245.68597036339492        10682.119467939130     
   12609.659842185203      -0.79043238811585637        244.95937899843094        10927.078846937560     
   12809.659842185203      -0.82564147285152822        243.37505093945563        11170.453897877016     
   13009.659842185203      -0.85957571280866918        242.41828350248034        11412.872181379496     
   13209.659842185203      -0.89526260590363438        240.53956786468211        11653.411749244178     
   13409.659842185203      -0.92802058240572549        240.01799347183567        11893.429742716015     
   13609.659842185203      -0.95881023463463522        239.52525914043730        12132.955001856451     
   13809.659842185203      -0.99040290478623771        238.21564327739185        12371.170645133843     
   14009.659842185203       -1.0211508391491910        237.20531400971481        12608.375959143557     
   14209.659842185203       -1.0505286340855577        236.41557973253177        12844.791538876088     
   14409.659842185203       -1.0788798483690829        235.60506769994410        13080.396606576032     
   14609.659842185203       -1.1071575108393219        234.53283339533311        13314.929439971365     
   14809.659842185203       -1.1357985965611637        233.26441451593539        13548.193854487301     
   15009.659842185203       -1.1633328369828388        232.34414758197860        13780.538002069279     
   15209.659842185203       -1.1907144009948456        231.25825171100112        14011.796253780280     
   15409.659842185203       -1.2179635479632989        230.13441800303033        14241.930671783310     
   15609.659842185203       -1.2443055390118825        229.20888675039967        14471.139558533709     
   15809.659842185203       -1.2699388265156950        228.29820209185220        14699.437760625560     
   16009.659842185203       -1.2951846855124383        227.32702807047141        14926.764788696031     
   16209.659842185203       -1.3203877855578179        226.25841338947936        15153.023202085511     
   16409.659842185203       -1.3452052802893733        225.25104664210514        15378.274248727615     
   16609.659842185203       -1.3697887705472886        224.22466892714434        15602.498917654761     
   16809.659842185203       -1.3941366669724926        223.19930568172069        15825.698223336482     
   17009.659842185203       -1.4184824009672343        222.11914569845939        16047.817369034941     
   17209.659842185203       -1.4420868092471169        221.20848781740787        16269.025856852350     
   17409.659842185203       -1.4652438535876686        220.28522272272650        16489.311079575076     
   17609.659842185203       -1.4882304921203329        219.30648400491526        16708.617563579992     
   17809.659842185203       -1.5107294969281646        218.39499023134908        16927.012553811343     
   18009.659842185203       -1.5325820188288535        217.55010304233389        17144.562656853675     
   18209.659842185203       -1.5542470105536277        216.63078895753915        17361.193445811215     
   18409.659842185203       -1.5758928339682596        215.65886311295188        17576.852308924168     
   18609.659842185203       -1.5971474482624695        214.75952349958951        17791.611832423758     
   18809.659842185203       -1.6178625668393602        213.92217204618893        18005.534004469948     
   19009.659842185203       -1.6379426071759944        213.13995982578643        18218.673964295733     
   19209.659842185203       -1.6580003252131230        212.24913232418137        18430.923096619914     
   19409.659842185203       -1.6779017802945160        211.36380932456052        18642.286905944475     
   19609.659842185203       -1.6974814207803453        210.51910170384821        18852.806007648323     
   19809.659842185203       -1.7165600808928958        209.73449727075675        19062.540504919081     
   20009.659842185203       -1.7355932577158888        208.87686418880989        19271.417369107890     
   20209.659842185203       -1.7542971434133445        208.06809833111248        19479.485467439004     
   20409.659842185203       -1.7726893705313638        207.27540596438229        19686.760873403386     
   20609.659842185203       -1.7908229699888423        206.48508202583298        19893.245955429218     
   20809.659842185203       -1.8089857972073271        205.63906796441663        20098.885023393635     
