 #              _____________________  _______________________             #
 #              ___  __ \__  __ \_  / / /_  /___  ____/_  ___/             #
 #              __  / / /_  /_/ /  / / /_  __/_  __/  _____ \              #
 #              _  /_/ /_  _, _// /_/ / / /_ _  /___  ____/ /              #
 #              /_____/ /_/ |_| \____/  \__/ /_____/  /____/               #
 #                                                                         #
  
 #        time                      T            heat flux [W.L-2]   in    x              directions   cumulative flux
 #-----------------------------------------------------------------------------------------------

   0.0000000000000000          279.85000000000002          -11.855310290412248          0.0000000000000000     
   1.0000000000000000          279.85000000000002          -11.855310290412248          0.0000000000000000     
   2.0060000000000002          279.85000000000002          -11.855310290351563          11.855310290351563     
   3.0180360000000004          279.84999999999985          -11.855310290132801          23.781752442225162     
   4.0361442160000003          279.84999999999923          -11.855310289426091          35.779753246294788     
   5.0603610812960005          279.84999999999690          -11.855310286261956          47.849742051967397     
   6.0907232477837763          279.84999999998814          -11.855310274818372          59.992150778753327     
   7.1272675872704792          279.84999999996069          -11.855310239245268          72.207413921246797     
   8.1700311927941023          279.84999999988395          -11.855310141226308          84.495968540994227     
   9.2190513799508675          279.84999999968903          -11.855309895570491          96.858254232299203     
   10.274365688230573          279.84999999923247          -11.855309327439999          109.29471304177164     
   11.336011882359955          279.84999999823464          -11.855308101838471          121.80578931070609     
   12.404027953654115          279.84999999618151          -11.855305612797480          134.39192939477326     
   13.478452121376039          279.84999999217484          -11.855300819416378          147.05358119993676     
   14.559322834104295          279.84999998471471          -11.855292013050658          159.79119345415910     
   15.646678771108920          279.84999997139528          -11.855276501022340          172.60521461540966     
   16.740558843735574          279.84999994849403          -11.855250190971059          185.49609129523728     
   17.841002196797987          279.84999991043634          -11.855207065193698          198.46426606071537     
   18.948048209978776          279.84999984911445          -11.855138532891857          211.51017445887030     
   20.061736499238648          279.84999975304902          -11.855032660351673          224.63424110164064     
   21.182106918234080          279.84999960637856          -11.854873273939971          237.83687463748743     
   22.309199559743483          279.84999938767027          -11.854638946984897          251.11846144156047     
   23.443054757101944          279.84999906855160          -11.854301881035047          264.47935786190618     
   24.583713085644554          279.84999861216562          -11.853826699383582          277.91988087358874     
   25.731215364158420          279.84999797145963          -11.853169175743075          291.44029701352463     
   26.885602656343369          279.84999708732488          -11.852274927440943          305.04080949833588     
   28.046916272281429          279.84999588660679          -11.851078101437292          318.72154345732645     
   29.215197769915118          279.84999428001231          -11.849500086229487          332.48252924952396     
   30.390488956534607          279.84999215994338          -11.847448282641398          346.32368387230593     
   31.572831890273815          279.84998939828955          -11.844814964927023          360.24479050772334     
   32.762268881615455          279.84998584421305          -11.841476263150449          374.24547629249980     
   33.958842494905149          279.84998132196063          -11.837291293006849          388.32518843368848     
   35.162595549874581          279.84997562873599          -11.832101456021020          402.48316882572976     
   36.373571123173825          279.84996853266671          -11.825729930245997          416.71842735650682     
   37.591812549912866          279.84995977089409          -11.817981364436370          431.02971411454496     
   38.817363425212342          279.84994904781399          -11.808641783987051          445.41549072931963     
   40.050267605763615          279.84993603349346          -11.797478714355568          459.87390109402503     
   41.290569211398200          279.84992036228346          -11.784241519929942          474.40274172857255     
   42.538312626666588          279.84990163164110          -11.768661952678073          488.99943204464978     
   43.793542502426590          279.84987940117810          -11.750454901192469          503.66098477402085     
   45.056303757441150          279.84985319193868          -11.729319327930906          518.38397681676895     
   46.326641579985797          279.84982248591484          -11.704939379000880          533.16452075686539     
   47.604601429465710          279.84978672579911          -11.676985647728362          547.99823727848570     
   48.890229038042506          279.84974531497011          -11.645116573709119          562.88022870219902     
   50.183570412270761          279.84969761770583          -11.608979952380562          577.80505383639399     
   51.484671834744383          279.84964295961481          -11.568214535607103          592.76670432124331     
   52.793579865752847          279.84958062827502          -11.522451701023686          607.75858261982887     
   54.110341344947365          279.84950987407007          -11.471317172657322          622.77348179336536     
   55.435003393017048          279.84942991120903          -11.414432771442419          637.80356717365623     
   56.767613413375152          279.84933991891484          -11.351418175504293          652.84036002251514     
   58.108219093855404          279.84923904275712          -11.281892662607813          667.87472323331087     
   59.456868408418536          279.84912639611537          -11.205476821606382          682.89684911284621     
   60.813609618869044          279.84900106175786          -11.121794221838101          697.89624926684041     
   62.178491276582257          279.84886209352499          -11.030473032249581          712.86174660045640     
   63.551562224241749          279.84870851810280          -10.931147579817633          727.78146942990566     
   64.932871597587194          279.84853933687145          -10.823459836256887          742.64284768422942     
   66.322468827172713          279.84835352780408          -10.707060811542728          757.43261114419317     
   67.720403640135743          279.84815004737914          -10.581611822858981          772.13678961778749     
   69.126726061976555          279.84792783251135          -10.446785662961330          786.74071497960426     
   70.541486418348413          279.84768580250699          -10.302267688262056          801.22902502541331     
   71.964735336858510          279.84742286103915          -10.147756824880267          815.58566908735588     
   73.396523748879659          279.84713789812855          -9.9829664826423556          829.79391533729915     
   74.836902891372944          279.84682979211391          -9.8076253646074161          843.83635968378871     
   76.285924308721178          279.84649741159114          -9.6214781621545420          857.69493614851069     
   77.743639854573502          279.84613961717452          -9.4242859788516782          871.35092837508148     
   79.210101693700949          279.84575526325045          -9.2158267365646989          884.78498227685338     
   80.685362303863158          279.84534319976660          -8.9958955959959788          897.97711987715604     
   82.169474477686336          279.84490227402284          -8.7643053320633371          910.90675430898364     
   83.662491324552448          279.84443133241916          -8.5208866102438705          923.55270585901349     
   85.164466272499766          279.84392922213289          -8.2654881458878116          935.89321890839619     
   86.675453070134765          279.84339479271040          -7.9979767485244011          947.90597961894491     
   88.195505788555579          279.84282689722238          -7.7182368907445120          959.56813366187930     
   89.724678823286908          279.84222439340931          -7.4261703886283748          970.85630414856996     
   91.263026896226634          279.84158614515661          -7.1216965004894437          981.74661039865896     
   92.810605057603993          279.84091102401646          -6.8047520023249639          992.21468752826831     
   94.367468687949611          279.84019791060655          -6.4752910585313801          1002.2357065590136     
   95.933673500077305          279.83944569584366          -6.1332849019621296          1011.7843947574263     
   97.509275541077770          279.83865328203387          -5.7787213931819252          1020.8350560113731     
   99.094331194324241          279.83781958384714          -5.4116045165884810          1029.3615911327972     
   100.68889718149019          279.83694352680419          -5.0319514660947950          1037.3375142509926     
   102.29303056457913          279.83602404950381          -4.6397942648059196          1044.7359723730997     
   103.90678874796660          279.83506010554163          -4.2351803901080558          1051.5297666202757     
   105.53022948045439          279.83405066464695          -3.8181723110033090          1057.6913734327409     
   107.16341085733713          279.83299471334050          -3.3888466085976061          1063.1929650532913     
   108.80639132248115          279.83189125538030          -2.9472930649067015          1068.0064291991125     
   110.45922967041604          279.83073931213130          -2.4936138465690805          1072.1033880366381     
   112.12198504843853          279.82953792106537          -2.0279211477419956          1075.4552138762142     
   113.79471695872917          279.82828613063123          -1.5503322473467538          1078.0330371582118     
   115.47748526048154          279.82698301058008          -1.0609797913774157          1079.8077719114222     
   117.17035017204444          279.82562765273082         -0.56000976024042703          1080.7501385846267     
   118.87337227307670          279.82421917005041          -4.7578675553880956E-002     1080.8306828550105     
   120.58661250671516          279.82275669588279          0.47614816387853764          1081.6415737014615     
   122.31013218175545          279.82123938355198           1.0109976554925035          1083.3736555609655     
   124.04399297484598          279.81966640622301           1.5567894825955619          1086.0568128641148     
   125.78825693269505          279.81803694623136           2.1133447096807583          1089.7210583985157     
   127.54298647429123          279.81635019010025           2.6804871164760886          1094.3965354652637     
   129.30824439313696          279.81460536872532           3.2580101211818109          1100.1134620717207     
   131.08409385949579          279.81280173858050           3.8457008191088473          1106.9021158961641     
   132.87059842265276          279.81093857638757           4.4433442880879577          1114.7928264790137     
   134.66782201318867          279.80901517792643           5.0507234674548398          1123.8159670008658     
   136.47582894526781          279.80703085798132           5.6676185709642048          1134.0019447987622     
   138.29468391893943          279.80498495050432           6.2938068062555859          1145.3811911336390     
   140.12445202245306          279.80287676895796           6.9290865010261253          1157.9841945790313     
   141.96519873458777          279.80070561829848           7.5732613461786906          1171.8415066298419     
   143.81698992699529          279.79847093975548           8.2260515184545930          1186.9835839162879     
   145.67989186655726          279.79617216445911           8.8872128047674117          1203.4408463132077     
   147.55397121775661          279.79380873121232           9.5565094755487507          1221.2436863506498     
   149.43929504506315          279.79138009315295           10.233706548078430          1240.4224644786370     
   151.33593081533354          279.78888572025892           10.918568004007154          1261.0075008966585     
   153.24394640022555          279.78632510025494           11.610957791587488          1283.0292587712829     
   155.16341007862690          279.78369777074977           12.310766570597142          1306.5183932499497     
   157.09439053909867          279.78100332910736           13.017367277279533          1331.5047569270980     
   159.03695688233327          279.77824126670453           13.730625954833201          1358.0183273559273     
   160.99117862362726          279.77541112308262           14.450339804000787          1386.0890711074824     
   162.95712569536903          279.77251246687513           15.176283532331475          1415.7468943384067     
   164.93486844954126          279.76954488859684           15.908224908743925          1447.0216225143613     
   166.92447766023849          279.76650799772796           16.645930082366242          1479.9429901212184     
   168.92602452619994          279.76340142138906           17.389165502857509          1514.5406339720425     
   170.93958067335714          279.76022480928930           18.137710084019854          1550.8441107464296     
   172.96521815739729          279.75697785060265           18.891379620235590          1588.8829643090353     
   175.00300946634167          279.75366022248136           19.649892920309718          1628.6865239657898     
   177.05302752313972          279.75027161252473           20.413011975558032          1670.2839823589595     
   179.11534568827855          279.74681172409527           21.180511146468962          1713.7044126614333     
   181.19003776240822          279.74328027694804           21.952168901151012          1758.9767693504728     
   183.27717798898269          279.73967700676860           22.727765965532157          1806.1298852618363     
   185.37684105691659          279.73600166457135           23.507085150481409          1855.1924682889169     
   187.48910210325809          279.73225401662489           24.289912632765528          1906.1931007672756     
   189.61403671587763          279.72843385301769           25.076058504770788          1959.1602823426833     
   191.75172093617289          279.72454097348248           25.865304437140892          2014.1223630071061     
   193.90223126178992          279.72057518755787           26.657435136774083          2071.1075414525326     
   196.06564464936065          279.71653631617738           27.452242024369244          2130.1438713872767     
   198.24203851725682          279.71242419257214           28.249522057200323          2191.2592655982990     
   200.43149074836035          279.70823866254136           29.049076508533759          2254.4814975795184     
   202.63407969285052          279.70397958438622           29.850710287960517          2319.8382018195189     
   204.84988417100763          279.69964682868994           30.654231643327002          2387.3568735389513     
   207.07898347603367          279.69524028094952           31.459459629040364          2457.0648850653815     
   209.32145737688987          279.69075983890417           32.266210898987609          2528.9894733561387     
   211.57738612115119          279.68620541083988           33.074301635354303          2603.1577315624663     
   213.84685043787809          279.68157691514989           33.883550560732644          2679.5966072300553     
   216.12993154050537          279.67687428034196           34.693780149524109          2758.3329032917686     
   218.42671112974841          279.67209744508364           35.504816829895624          2839.3932796483459     
   220.73727139652689          279.66724635816843           36.316490853310569          2922.8042545931607     
   223.06169502490604          279.66232097840111           37.128636118193342          3008.5922059675349     
   225.40006519505548          279.65732127525496           37.941092306266739          3096.7833774107362     
   227.75246558622581          279.65224722854987           38.753702392355748          3187.4038790678696     
   230.11898037974316          279.64709882766016           39.566311247864462          3280.4796851245133     
   232.49969426202162          279.64187607091571           40.378765978798299          3376.0366321573147     
   234.89469242759375          279.63657896526081           41.190916540653369          3474.1004189894215     
   237.30406058215931          279.63120752606261           42.002616122376160          3574.6966075517430     
   239.72788494565228          279.62576177697110           42.813721297403241          3677.8506242241519     
   242.16625225532619          279.62024174978512           43.624092035891501          3783.5877613360049     
   244.61924976885814          279.61464748455353           44.433592361598521          3891.9331804019030     
   247.08696526747130          279.60897902954861           45.242090036828138          4002.9119147692313     
   249.56948705907612          279.60323644096979           46.049455788469949          4116.5488705211392     
   252.06690398143058          279.59741978257250           46.855562996595076          4232.8688267180996     
   254.57930540531916          279.59152912534694           47.660287734046392          4351.8964358293897     
   257.10678123775108          279.58556454727170           48.463508905838196          4473.6562246110543     
   259.64942192517759          279.57952613312244           49.265108360678262          4598.1725953748082     
   262.20731845672867          279.57341397430991           50.064970941635906          4725.4698275058372     
   264.78056236746903          279.56722816881285           50.862984721063782          4855.5720797081813     
   267.36924574167386          279.56096882112718           51.659041042991497          4988.5033925067464     
   269.97346121612389          279.55463604212696           52.453034250101489          5124.2876901965801     
   272.59330198342064          279.54822994885234           53.244861423502904          5262.9487822506144     
   275.22886179532117          279.54175066428093           54.034422255004003          5404.5103645116005     
   277.88023496609310          279.53519831711753           54.821619022355925          5548.9960204302433     
   280.54751637588964          279.52857304160881           55.606356604150719          5696.4292224548644     
   283.23080147414498          279.52187497738339           56.388542494926092          5846.8333335771040     
   285.93018628298984          279.51510426933726           57.168086888326798          6000.2316092203173     
   288.64576740068776          279.50826106754874           57.944902732925790          6156.6471994075710     
   291.37764200509190          279.50134552717645           58.718905650988845          6316.1031508452834     
   294.12590785712246          279.49435780832351           59.490013797628784          6478.6224087546761     
   296.89066330426522          279.48729807587881           60.258147740354282          6644.2278184961033     
