 #              _____________________  _______________________             #
 #              ___  __ \__  __ \_  / / /_  /___  ____/_  ___/             #
 #              __  / / /_  /_/ /  / / /_  __/_  __/  _____ \              #
 #              _  /_/ /_  _, _// /_/ / / /_ _  /___  ____/ /              #
 #              /_____/ /_/ |_| \____/  \__/ /_____/  /____/               #
 #                                                                         #
  
 #        time                      T            heat flux [W.L-2]   in    x              directions   cumulative flux
 #-----------------------------------------------------------------------------------------------

   0.0000000000000000        5.1906999999999996       -4.1881534424623688        4.1881534424623688     
   1.0000000000000000        4.8188234139772970       -101.30714993781703        105.49530338027940     
   1.9540000000000002        4.4950462290957756       -183.30328212536369        288.79858550564308     
   2.8641160000000001        4.2115192630765970       -252.88877401939936        541.68735952504244     
   3.8288389600000006        3.9355359166175208       -318.29914606408528        859.98650558912777     
   4.8514452976000007        3.6676954227418928       -379.33898163950005        1239.3254872286279     
   5.9354080154560007        3.4085003127385831       -435.85778058556764        1675.1832678141955     
   7.0844084963833609        3.1583474541093559       -487.75310088025014        2162.9363686944457     
   8.3023490061663630        2.9175214597250254       -534.97262076374079        2697.9089894581866     
   9.5933659465363448        2.6861908365572074       -577.51498332941026        3275.4239727875970     
   10.961843903328527        2.4644071510892434       -615.42932763976785        3890.8533004273650     
   12.412430537528239        2.2521073713463888       -648.81346271650023        4539.6667631438650     
   13.950052369779934        2.0491194069697358       -677.81070113240196        5217.4774642762668     
   15.579931511966731        1.8551707159667727       -702.60543418886232        5920.0828984651289     
   17.307603402684734        1.6698996890902671       -723.41759665506083        6643.5004951201900     
   19.138935606845820        1.4928693713924299       -740.49623095357981        7383.9967260737694     
   21.080147743256571        1.3235829474698502       -754.11241338495483        8138.1091394587238     
   23.137832607851966        1.1615003141591158       -764.55184357308337        8902.6609830318066     
   25.318978564323086        1.0060550023648172       -772.10741862872521        9674.7684016605326     
   27.630993278182473       0.85667069586063516       -777.07211273898054        10451.840514399513     
   30.081728874873424       0.71277663282951287       -779.73245997312245        11231.572974372635     
   32.679508607365833       0.57382126426437874       -780.36289414678731        12011.935868519422     
   35.433155123807786       0.43928367563804788       -779.22113789683090        12791.157006416253     
   38.352020431236255       0.30868244317637616       -776.54475895024098        13567.701765366495     
   41.446017657110431       0.18158177860841029       -772.54893164302041        14340.250697009516     
   44.725654716537058        5.7594999342714059E-002  -767.42536347564157        15107.676060485159     
   48.202069999529286       -6.3614472422149182E-002  -761.34227708150854        15869.018337566667     
   51.887070199501046      -0.18233424295070988       -754.44528349518919        16623.463621061856     
   55.793170411471110      -0.29880578077886505       -778.64517517829029        17402.108796240147     
   59.933636636159378      -0.41322847352660691       -804.65963823555899        18206.768434475707     
   64.322530834328944      -0.46303721070474357       -753.05241272129069        18959.820847196999     
   68.974758684388689      -0.52667764457804433       -708.66267494210433        19668.483522139104     
   73.626986534448434      -0.55863126733593749       -716.18273439648362        20384.666256535587     
   78.558348055511757      -0.58572072402963082       -688.11371440997573        21072.779970945565     
   83.785591267838882      -0.60918200086982288       -664.52520037081013        21737.305171316373     
   89.326469072905638      -0.62989367342579106       -644.60833621805421        22381.913507534427     
   95.199799546276395      -0.64859280779231610       -627.56318081478423        23009.476688349212     
   101.42552984804939      -0.66595488324762486       -612.74253176826471        23622.219220117477     
   108.02480396792878      -0.68760191583375174       -598.53177598171169        24220.750996099188     
   114.62407808780816      -0.71469410524813526       -585.50067757223030        24806.251673671417     
   121.22335220768754      -0.74662945862484720       -573.95624848857290        25380.207922159989     
   128.21858277475968      -0.76290752888738722       -564.57767374149387        25944.785595901481     
   135.21381334183184      -0.78000874261021513       -555.50996799144946        26500.295563892931     
   142.62875774292831      -0.79958106889836500       -546.21513081595697        27046.510694708886     
   150.48859880809059      -0.82249447278291365       -536.73354981681223        27583.244244525697     
   158.82003033716259      -0.85001817987394668       -527.20440765011449        28110.448652175812     
   167.65134775797893      -0.88412852127650132       -517.91392525411561        28628.362577429929     
   177.01254422404423      -0.92801312096369948       -509.39998738571609        29137.762564815646     
   186.93541247807346      -0.98693281512724718       -502.62214167009836        29640.384706485744     
   197.45365282734443       -1.0694820704289938       -499.21685820590892        30139.601564691653     
   208.60298759757165       -1.1385155037139387       -502.41118262102657        30642.012747312681     
   219.75232236779888       -1.1898062674687906       -505.20905143632012        31147.221798749000     
   230.90165713802611       -1.2242993296251985       -507.65489443678791        31654.876693185790     
   242.05099190825334       -1.2478964243278103       -510.43748238596072        32165.314175571752     
   253.20032667848056       -1.2646191110719944       -514.13715426385625        32679.451329835607     
   265.01862153492141       -1.2915871160328045       -518.03163719474333        33197.482967030352     
   276.83691639136225       -1.3319913864758424       -521.53941365048081        33719.022380680835     
   286.29155227651495       -1.3698520537018835       -524.06518397127024        34243.087564652109     
   296.31346631477680       -1.3829725690050847       -526.81666916524125        34769.904233817353     
   306.33538035303866       -1.3977460510104067       -529.21566705546047        35299.119900872814     
   316.95860923359623       -1.4155331553636736       -531.29529834950006        35830.415199222312     
   328.21923184698727       -1.4369654019985627       -532.95568194007433        36363.370881162387     
   340.15549181718177       -1.4628955052204455       -534.15722651145154        36897.528107673839     
   352.80792738558790       -1.4945573584957497       -534.92218735700146        37432.450295030838     
   366.21950908809845       -1.5338359311156460       -535.31852418338644        37967.768819214223     
   380.43578569275962       -1.5837003796352382       -535.43646976823572        38503.205288982455     
   395.50503889370043       -1.6488876041200919       -535.38884111655454        39038.594130099009     
   411.47844728669770       -1.7250063556474251       -536.68760820613034        39575.281738305137     
   428.41026018327483       -1.7968110546812965       -537.59590700420972        40112.877645309345     
   445.34207307985196       -1.8455668825182203       -536.96224397642982        40649.839889285773     
   462.27388597642909       -1.8768764313347526       -536.11662279739198        41185.956512083168     
   479.20569887300621       -1.9455398998787705       -544.53149928845528        41730.488011371621     
   492.75114919026788       -2.0098804137141024       -553.22872305772989        42283.716734429348     
   507.10932652656527       -2.0301548000011893       -554.09519253445387        42837.811926963805     
   521.46750386286271       -2.0598448669142768       -557.61256805280800        43395.424495016610     
   536.68717183933791       -2.0981669780351191       -563.01074062278008        43958.435235639394     
   552.82001989440164       -2.1431736616664985       -569.58102254218977        44528.016258181582     
   569.92083883276928       -2.1922205236334587       -576.55448616437025        45104.570744345954     
   588.04770690743896       -2.2422048053235257       -583.09565845102827        45687.666402796982     
   607.26218706658881       -2.2915477220608440       -587.04950859327664        46274.715911390260     
   627.62953603528763       -2.3429639380245559       -587.24435614251502        46861.960267532777     
   649.21892594210840       -2.3915095027842925       -590.25752557725207        47452.217793110030     
   672.10367924333843       -2.4322057552948073       -590.32618134994209        48042.543974459972     
   696.36151774264226       -2.4697819457612962       -587.65646580685336        48630.200440266824     
   722.07482655190427       -2.5062591959281302       -583.50004814579029        49213.700488412615     
   749.33093388972202       -2.5400636799938110       -578.43515269272905        49792.135641105342     
   776.58704122753977       -2.5684439468714650       -573.47550146056585        50365.611142565911     
   803.84314856535752       -2.5921977261980724       -568.90981975446209        50934.520962320370     
   832.73462234344436       -2.6275199842071983       -559.96878959947242        51494.489751919842     
   855.84780136591382       -2.6621036048408881       -551.48750264868499        52045.977254568526     
   878.96098038838329       -2.6856527474688567       -549.33954675467476        52595.316801323199     
   903.46095015220089       -2.7092284884778888       -545.11224860320260        53140.429049926403     
   929.43091810184751       -2.7355817363540389       -540.20910818365974        53680.638158110065     
   956.95908412847302       -2.7659999976715213       -534.38188368032661        54215.020041790391     
   986.13894011669606       -2.8012517542544866       -528.00483039307278        54743.024872183465     
   1017.0695874642124       -2.8389470001504531       -521.43805007522849        55264.462922258695     
   1049.8560736525799       -2.8745803132082890       -515.09095801407534        55779.553880272768     
   1084.6097490122493       -2.9108831568163600       -507.66267436916252        56287.216554641927     
   1121.4486448934988       -2.9704598151945061       -496.70702191103197        56783.923576552959     
   1158.2875407747483       -3.0039584315311423       -491.14963972808846        57275.073216281045     
   1195.1264366559978       -3.0422106943040657       -483.54838778471782        57758.621604065760     
   1231.9653325372474       -3.0859958118150272       -475.58819571552715        58234.209799781289     
   1268.8042284184969       -3.1319078496743433       -467.44502339373139        58701.654823175020     
   1307.8534580526214       -3.1832816899552947       -459.41879425921502        59161.073617434238     
   1349.2456414647934       -3.2325043353863689       -452.02273420911627        59613.096351643355     
   1390.6378248769654       -3.2732553043843930       -445.24598619947005        60058.342337842827     
   1434.5135392938678       -3.3109435575843653       -439.40517619900396        60497.747514041832     
   1481.0217965757843       -3.3444413248566409       -434.13514554346568        60931.882659585295     
   1530.3205492946158       -3.3740366729736602       -429.41636912988531        61361.299028715177     
   1582.5772271765773       -3.4097049910486934       -424.07947002766338        61785.378498742837     
   1634.8339050585387       -3.4365971095079111       -419.28876156181559        62204.667260304654     
   1687.0905829405001       -3.4615928227581838       -415.11719338032282        62619.784453684973     
   1739.3472608224615       -3.4868473129332669       -410.99980981243147        63030.784263497408     
   1794.7393393773407       -3.5158739783834116       -406.63028613058202        63437.414549627989     
   1853.4549426455126       -3.5465029122877820       -401.90747839113220        63839.322028019124     
   1915.6934821097748       -3.5826902230072832       -396.56413961156460        64235.886167630691     
   1977.9320215740370       -3.6273102694129751       -389.88180703961172        64625.767974670300     
   2040.1705610382992       -3.6599137372909167       -383.72989255591096        65009.497867226208     
   2102.4091005025612       -3.6937923061704510       -378.30362070701608        65387.801487933226     
   2164.6476399668231       -3.7297438515378212       -372.59860179904928        65760.400089732269     
   2226.8861794310851       -3.7643304032585858       -366.86806540166043        66127.268155133934     
   2289.1247188953471       -3.7959446646762558       -361.50518142311893        66488.773336557046     
   2355.0975707274652       -3.8269288511613437       -356.56954280961054        66845.342879366654     
   2425.0287936695099       -3.8552687058228772       -351.87797890365783        67197.220858270317     
   2494.9600166115547       -3.8820902724004096       -347.38038942067209        67544.601247690982     
   2550.9049949651908       -3.9013367253155602       -343.22484227589206        67887.826089966868     
   2610.2066720200451       -3.9224495564321913       -340.02246917536939        68227.848559142236     
   2669.5083490748993       -3.9403001054508295       -336.88093234949957        68564.729491491729     
   2732.3681267530446       -3.9589732737424050       -333.99326366098120        68898.722755152718     
   2798.9994910918786       -3.9780870660318275       -331.00511447418563        69229.727869626906     
   2869.6287372910429       -3.9984812717715661       -327.88047181368307        69557.608341440588     
   2944.4957382621569       -4.0238901605409234       -324.28754650303040        69881.895887943625     
   3019.3627392332710       -4.0453721729499996       -320.42604700789423        70202.321934951513     
   3094.2297402043851       -4.0670047160006586       -316.91587039525831        70519.237805346769     
   3169.0967411754991       -4.0889692562295457       -313.36904507059063        70832.606850417360     
   3248.4557622048801       -4.1147190505729760       -309.62801919642453        71142.234869613778     
   3332.5763244960240       -4.1415433312138816       -305.46226760690644        71447.697137220690     
   3416.6968867871678       -4.1654192668547445       -301.27612744538891        71748.973264666085     
   3500.8174490783117       -4.1872832833937359       -297.51143363244347        72046.484698298533     
   3589.9852451069241       -4.2102399366911820       -293.96276676801307        72340.447465066551     
   3661.3194819298142       -4.2246035200473795       -290.51225890920398        72630.959723975757     
   3732.6537187527042       -4.2409951915052879       -288.02514391140545        72918.984867887164     
   3803.9879555755942       -4.2550735498533898       -285.52180235497781        73204.506670242146     
   3879.6022466078575       -4.2697627786269043       -283.24411597512761        73487.750786217279     
   3959.7533951020564       -4.2844363026511036       -280.90839082430767        73768.659177041583     
   4044.7136125059073       -4.3002707407055798       -278.50103276154135        74047.160209803129     
   4129.6738299097588       -4.3165446001503511       -275.89502746175793        74323.055237264882     
   4197.6420038328397       -4.3282154618595241       -273.34459382474569        74596.399831089628     
   4265.6101777559206       -4.3415351811020528       -271.31969375117711        74867.719524840810     
   4333.5783516790016       -4.3538005739347625       -269.22889597337894        75136.948420814195     
   4405.6246160374676       -4.3673726110119446       -267.19085046535963        75404.139271279550     
   4481.9936562574412       -4.3819334031637025       -264.96864493350085        75669.107916213048     
   4562.9448388906130       -4.3974734615380271       -262.59009005696942        75931.698006270017     
   4643.8960215237848       -4.4119427001825864       -260.12566579393092        76191.823672063954     
   4729.7042751149474       -4.4273867336241874       -257.76261114048685        76449.586283204437     
   4820.6610239215797       -4.4428718199387793       -255.29588877957778        76704.882171984020     
   4911.6177727282120       -4.4574552279000113       -252.82320872430759        76957.705380708328     
   4969.8300919644562       -4.4635979109096855       -250.72167032620791        77208.427051034538     
   5031.5351503548754       -4.4737292036137353       -249.42739483564145        77457.854445870180     
   5093.2402087452947       -4.4823771020114913       -247.89729721774225        77705.751743087923     
   5158.6475706391393       -4.4916221832569345       -246.48266413335639        77952.234407221273     
   5227.9793742466145       -4.5007959406244513       -245.02176987545465        78197.256177096730     
   5301.4710860705381       -4.5101365762918952       -243.55343582280406        78440.809612919533     
   5379.3723006038972       -4.5198610131485069       -242.04321424120619        78682.852827160736     
   5457.2735151372563       -4.5293171984480320       -240.47625591329083        78923.329083074030     
   5535.1747296706153       -4.5391293070359309       -238.91327168360959        79162.242354757633     
   5617.7500170759758       -4.5496708769154193       -237.30644798217543        79399.548802739810     
   5700.3253044813364       -4.5594169147555448       -235.63713494046937        79635.185937680275     
   5787.8551091310183       -4.5702585242129059       -234.02079515155543        79869.206732831837     
   5880.6367020596808       -4.5817102691668348       -232.25698147899990        80101.463714310841     
   5973.4182949883434       -4.5927411085648302       -230.41402844135243        80331.877742752200     
   6066.1998879170060       -4.6037506527411791       -228.61848257699887        80560.496225329203     
   6164.5483764213886       -4.6155847419514853       -226.81705635099280        80787.313281680195     
   6268.7977742360345       -4.6276935470319529       -224.91005453458786        81012.223336214782     
   6373.0471720506803       -4.6390646867431604       -222.97258368585312        81235.195919900638     
   6461.4506613975000       -4.6474677581565889       -221.18902758720648        81456.384947487837     
   6555.1583601051288       -4.6581440449587754       -219.72775075765185        81676.112698245488     
   6648.8660588127577       -4.6670958655991814       -218.07896217986718        81894.191660425349     
   6748.1962194428443       -4.6769536026241907       -216.60272873910620        82110.794389164454     
   6853.4861897107357       -4.6865651945499947       -215.03600203832650        82325.830391202777     
   6958.7761599786272       -4.6957219618750603       -213.49153471844002        82539.321925921220     
   7064.0661302465187       -4.7050459335572281       -211.99230179032469        82751.314227711540     
   7148.2981064608321       -4.7111210428021977       -210.55361331151016        82961.867841023050     
