 #              _____________________  _______________________             #
 #              ___  __ \__  __ \_  / / /_  /___  ____/_  ___/             #
 #              __  / / /_  /_/ /  / / /_  __/_  __/  _____ \              #
 #              _  /_/ /_  _, _// /_/ / / /_ _  /___  ____/ /              #
 #              /_____/ /_/ |_| \____/  \__/ /_____/  /____/               #
 #                                                                         #
  
 #        time                      T            heat flux [W.L-2]   in    x              directions   cumulative flux
 #-----------------------------------------------------------------------------------------------

   0.0000000000000000        5.4707999999999997       0.83978018327393922       0.83978018327393922     
   1.0000000000000000        5.4701489956912415        1.0097720618602617        1.8495522451342010     
   1.9540000000000002        5.4695614328512780        1.1586883853307435        3.0082406304649445     
   2.8641160000000001        5.4690290179903007        1.2897355355741675        4.2979761660391116     
   3.8288389600000006        5.4684936939143318        1.4173905746948607        5.7153667407339723     
   4.8514452976000007        5.4679561166333484        1.5412652708851675        7.2566320116191401     
   5.9354080154560007        5.4674168857133747        1.6610041796484529        8.9176361912675937     
   7.0844084963833609        5.4668765314244743        1.7762907518846227        10.693926943152217     
   8.3023490061663630        5.4663355028311464        1.8868528968723477        12.580779840024565     
   9.5933659465363448        5.4657941572649342        1.9924677968494304        14.573247636873996     
   10.961843903328527        5.4652527516084310        2.0929657804402617        16.666213417314257     
   12.412430537528239        5.4647114357871605        2.1882330834172001        18.854446500731456     
   13.950052369779934        5.4641702488097943        2.2782133573552201        21.132659858086676     
   15.579931511966731        5.4636291176183942        2.3629078289906902        23.495567687077365     
   17.307603402684734        5.4630878589108534        2.4423740639854850        25.937941751062851     
   19.138935606845820        5.4625461839815426        2.5167233459330345        28.454665096995885     
   21.080147743256571        5.4620037064989351        2.5861167416471895        31.040781838643074     
   23.137832607851966        5.4614599530080650        2.6507599832206470        33.691541821863723     
   25.318978564323086        5.4609143758191276        2.7108973519530037        36.402439173816724     
   27.630993278182473        5.4603663678300434        2.7668047949310774        39.169243968747800     
   30.081728874873424        5.4598152787385263        2.8187825382105514        41.988026506958349     
   32.679508607365833        5.4592604320350056        2.8671474784387043        44.855173985397052     
   35.433155123807786        5.4587011421366869        2.9122256358320797        47.767399621229131     
   38.352020431236255        5.4581367310273672        2.9543449355725389        50.721744556801667     
   41.446017657110431        5.4575665438068306        2.9938285533665145        53.715573110168179     
   44.725654716537058        5.4569899626242417        3.0309890168707718        56.746562127038949     
   48.202069999529286        5.4564064185658232        3.0661232019340412        59.812685328972989     
   51.887070199501046        5.4558154011803692        3.0995083056456205        62.912193634618610     
   55.793170411471110        5.4552164654475934        3.1313988218298965        66.043592456448508     
   59.933636636159378        5.4546092361150906        3.1620244931268746        69.205616949575386     
   64.322530834328944        5.4539934094414813        3.1915891706956914        72.397206120271079     
   68.974758684388689        5.4533687524796939        3.2202704800892152        75.617476600360291     
   73.626986534448434        5.4527695788799466        3.2467484827904136        78.864225083150700     
   78.558348055511757        5.4521604539596504        3.2727483058074873        82.136973388958182     
   83.785591267838882        5.4515413479488020        3.2983539589006394        85.435327347858816     
   89.326469072905638        5.4509122728452546        3.3236324885943822        88.758959836453201     
   95.199799546276395        5.4502732760474508        3.3486349053242024        92.107594741777405     
   101.42552984804939        5.4496244330349972        3.3733972834742523        95.480992025251652     
   108.02480396792878        5.4489658393061413        3.3979419730880078        98.878933998339662     
   114.62407808780816        5.4483339602634082        3.4209815852071457        102.29991558354681     
   121.22335220768754        5.4477266331037546        3.4426755568424507        105.74259114038925     
   128.21858277475968        5.4471081902385849        3.4643132509315517        109.20690439132080     
   135.21381334183184        5.4465130696609751        3.4847204186428020        112.69162480996361     
   142.62875774292831        5.4459063380867816        3.5050959593596263        116.19672076932324     
   150.48859880809059        5.4452880569776401        3.5254095442879660        119.72213031361120     
   158.82003033716259        5.4446582700222512        3.5456267936074335        123.26775710721864     
   167.65134775797893        5.4440169965889638        3.5657097175590939        126.83346682477773     
   177.01254422404423        5.4433642250151291        3.5856171898639011        130.41908401464164     
   186.93541247807346        5.4426999057911889        3.6053054461655711        134.02438946080721     
   197.45365282734443        5.4420239446871328        3.6247285993639746        137.64911806017119     
   208.60298759757165        5.4413361958558681        3.6438391625487925        141.29295722271999     
   219.75232236779888        5.4406746356274072        3.6616009854365466        144.95455820815653     
   230.90165713802611        5.4400369839482030        3.6781283520930246        148.63268656024954     
   242.05099190825334        5.4394212188824600        3.6935229130212806        152.32620947327081     
   253.20032667848056        5.4388255407574659        3.7078755195045550        156.03408499277538     
   265.01862153492141        5.4382147890444550        3.7220150690160136        159.75610006179139     
   276.83691639136225        5.4376230095463001        3.7351668379814984        163.49126689977288     
   286.29155227651495        5.4371609360511002        3.7450966351446615        167.23636353491753     
   296.31346631477680        5.4366830323661191        3.7550016322575273        170.99136516717505     
   306.33538035303866        5.4362162394009719        3.7643264744573570        174.75569164163241     
   316.95860923359623        5.4357330738505896        3.7736029054582021        178.52929454709061     
   328.21923184698727        5.4352330740111174        3.7828005217455085        182.31209506883613     
   340.15549181718177        5.4347157436589866        3.7918875035858304        186.10398257242196     
   352.80792738558790        5.4341805465800714        3.8008306843512907        189.90481325677325     
   366.21950908809845        5.4336269005705029        3.8095956132973647        193.71440887007063     
   380.43578569275962        5.4330541708803253        3.8181466062015370        197.53255547627217     
   395.50503889370043        5.4324616630687412        3.8264467779797142        201.35900225425189     
   411.47844728669770        5.4318486152375094        3.8344580514070503        205.19346030565893     
   428.41026018327483        5.4312141896073172        3.8421411363888343        209.03560144204778     
   445.34207307985196        5.4305938644595866        3.8490822160765119        212.88468365812429     
   462.27388597642909        5.4299864707149093        3.8553407920858849        216.74002445021017     
   479.20569887300621        5.4293909574255714        3.8609699418551164        220.60099439206527     
   492.75114919026788        5.4289216556077804        3.8650952438743764        224.46608963593965     
   507.10932652656527        5.4284316429738748        3.8690702173949658        228.33515985333463     
   521.46750386286271        5.4279485813936903        3.8726718585733546        232.20783171190797     
   536.68717183933791        5.4274438048557139        3.8760966447968737        236.08392835670483     
   552.82001989440164        5.4269163197133414        3.8793139940193235        239.96324235072416     
   569.92083883276928        5.4263650608453062        3.8822911545499825        243.84553350527415     
   588.04770690743896        5.4257888836456516        3.8849930815827181        247.73052658685685     
   607.26218706658881        5.4251865552346903        3.8873822954722437        251.61790888232909     
   627.62953603528763        5.4245567448413787        3.8894187167045624        255.50732759903366     
   649.21892594210840        5.4238980132966796        3.8910594698975527        259.39838706893119     
   672.10367924333843        5.4232088015565258        3.8922586449090835        263.29064571384026     
   696.36151774264226        5.4224874181355975        3.8929669964044495        267.18361271024469     
   722.07482655190427        5.4217320252696615        3.8931315531470072        271.07674426339167     
   749.33093388972202        5.4209406235211599        3.8926950936126956        274.96943935700438     
   776.58704122753977        5.4201575487032834        3.8916895212466422        278.86112887825101     
   803.84314856535752        5.4193819141624875        3.8901512101401794        282.75128008839118     
   832.73462234344436        5.4185671544653315        3.8879592525071374        286.63923934089831     
   855.84780136591382        5.4179196453761937        3.8858631973297091        290.52510253822800     
   878.96098038838329        5.4172760237954876        3.8834393011230306        294.40854183935102     
   903.46095015220089        5.4165977009672126        3.8805165571959259        298.28905839654692     
   929.43091810184751        5.4158825813862297        3.8770362091571067        302.16609460570402     
   956.95908412847302        5.4151283906184569        3.8729317610705079        306.03902636677452     
   986.13894011669606        5.4143326500354219        3.8681272164013834        309.90715358317590     
   1017.0695874642124        5.4134926455564916        3.8625347774324177        313.76968836060831     
   1049.8560736525799        5.4126053884729508        3.8560518545935545        317.62574021520186     
   1084.6097490122493        5.4116675658286351        3.8485572071639682        321.47429742236585     
   1121.4486448934988        5.4106754770970138        3.8399060101459055        325.31420343251176     
   1158.2875407747483        5.4096844164048195        3.8305333364823766        329.14473676899416     
   1195.1264366559978        5.4086934177721240        3.8204177549124907        332.96515452390668     
   1231.9653325372474        5.4077015145148533        3.8095316539304038        336.77468617783705     
   1268.8042284184969        5.4067077312265415        3.7978419000808601        340.57252807791792     
   1307.8534580526214        5.4056510275339473        3.7845022369651566        344.35703031488310     
   1349.2456414647934        5.4045257822466102        3.7692357256913289        348.12626604057442     
   1390.6378248769654        5.4033939211390827        3.7527767664353999        351.87904280700980     
   1434.5135392938678        5.4021849052897437        3.7339067590023416        355.61294956601216     
   1481.0217965757843        5.4008907424115282        3.7122010178208251        359.32515058383296     
   1530.3205492946158        5.3995020417928048        3.6871518401826644        363.01230242401562     
   1582.5772271765773        5.3980077097987564        3.6581543465362691        366.67045677055188     
   1634.8339050585387        5.3964876583080787        3.6265615588632336        370.29701832941510     
   1687.0905829405001        5.3949384176777677        3.5922280757288538        373.88924640514392     
   1739.3472608224615        5.3933564773203742        3.5550151447351679        377.44426154987912     
   1794.7393393773407        5.3916386725340288        3.5121795853006899        380.95644113517983     
   1853.4549426455126        5.3897667837837577        3.4627971198933345        384.41923825507314     
   1915.6934821097748        5.3877193491428592        3.4058061987568884        387.82504445383000     
   1977.9320215740370        5.3856028667004008        3.3440171022462537        391.16906155607626     
   2040.1705610382992        5.3834116587726006        3.2773027397298442        394.44636429580612     
   2102.4091005025612        5.3811402227979039        3.2055620448589028        397.65192634066500     
   2164.6476399668231        5.3787832646122222        3.1287199069110088        400.78064624757599     
   2226.8861794310851        5.3763357271874472        3.0467266652597913        403.82737291283576     
   2289.1247188953471        5.3737928147665617        2.9595572460692146        406.78693015890497     
   2355.0975707274652        5.3709848081335636        2.8613413196554589        409.64827147856045     
   2425.0287936695099        5.3678759899468815        2.7507314435151029        412.39900292207557     
   2494.9600166115547        5.3646294290369845        2.6336867381971252        415.03268966027269     
   2550.9049949651908        5.3619414599548803        2.5359786925251893        417.56866835279789     
   2610.2066720200451        5.3589874865674556        2.4279012248109391        419.99656957760885     
   2669.5083490748993        5.3559262568656063        2.3153981516786999        422.31196772928757     
   2732.3681267530446        5.3525581559661539        2.1912833107319778        424.50325104001956     
   2798.9994910918786        5.3488467567332521        2.0544069784002215        426.55765801841977     
   2869.6287372910429        5.3447511914861670        1.9035395251650691        428.46119754358483     
   2944.4957382621569        5.3402257127007662        1.7373746780912684        430.19857222167610     
   3019.3627392332710        5.3355139068710740        1.5652261945773112        431.76379841625339     
   3094.2297402043851        5.3306141901765081        1.3873668972755893        433.15116531352896     
   3169.0967411754991        5.3255255130996826        1.2040778846606313        434.35524319818961     
   3248.4557622048801        5.3199185830841031        1.0040324963487119        435.35927569453833     
   3332.5763244960240        5.3137359954928796       0.78592531746203631        436.14520101200037     
   3416.6968867871678        5.3073148610090994       0.56217191614074424        436.70737292814113     
   3500.8174490783117        5.3006565040221574       0.33318309383095307        437.04055602197207     
   3589.9852451069241        5.2933343995116511        8.5055328564610844E-002   437.12561135053670     
   3661.3194819298142        5.2873090458019263      -0.11665878238997678        437.24227013292671     
   3732.6537187527042        5.2811177178882467      -0.32134548212707309        437.56361561505378     
   3803.9879555755942        5.2747623383164512      -0.52877047673027433        438.09238609178408     
   3879.6022466078575        5.2678438559477403      -0.75144592829468859        438.84383202007876     
   3959.7533951020564        5.2603093425623504      -0.99031959245367063        439.83415161253242     
   4044.7136125059073        5.2521012871847574       -1.2463533787308170        441.08050499126324     
   4129.6738299097588        5.2436763289126063       -1.5048679877621958        442.58537297902541     
   4197.6420038328397        5.2367999868166430       -1.7130955068806744        444.29846848590608     
   4265.6101777559206        5.2297898027323537       -1.9225731368929648        446.22104162279908     
   4333.5783516790016        5.2226483902602077       -2.1331410864989437        448.35418270929802     
   4405.6246160374676        5.2149342445148426       -2.3573856231789212        450.71156833247693     
   4481.9936562574412        5.2065990751053750       -2.5960484772140933        453.30761680969101     
   4562.9448388906130        5.1975908120990475       -2.8498787880028473        456.15749559769387     
   4643.8960215237848        5.1884143810107073       -3.1043339405036625        459.26182953819750     
   4729.7042751149474        5.1785042127263781       -3.3745084759153401        462.63633801411282     
   4820.6610239215797        5.1678006105991008       -3.6611225405734404        466.29746055468627     
   4911.6177727282120        5.1569051773411942       -3.9477050838140038        470.24516563850028     
   4969.8300919644562        5.1498553612412694       -4.1310394776985788        474.37620511619889     
   5031.5351503548754        5.1422985170162159       -4.3252120605211033        478.70141717671999     
   5093.2402087452947        5.1346598143934328       -4.5191522978683016        483.22056947458827     
   5158.6475706391393        5.1264734023710457       -4.7243884044288436        487.94495787901712     
   5227.9793742466145        5.1176984386533126       -4.9414666592361796        492.88642453825332     
   5301.4710860705381        5.1082912064493371       -5.1709392348455818        498.05736377309893     
   5379.3723006038972        5.0982049847189508       -5.4133605441775883        503.47072431727651     
   5457.2735151372563        5.0880084544018214       -5.6548583030450352        509.12558262032155     
   5535.1747296706153        5.0777058162515818       -5.8953357676605576        515.02091838798208     
   5617.7500170759758        5.0666707358936209       -6.1489889235929720        521.16990731157500     
   5700.3253044813364        5.0555262416161906       -6.4012906411170754        527.57119795269205     
   5787.8551091310183        5.0435958472677909       -6.6671046347551792        534.23830258744727     
   5880.6367020596808        5.0308245825387905       -6.9469244503800240        541.18522703782730     
   5973.4182949883434        5.0179348154192622       -7.2246959635496246        548.40992300137691     
   6066.1998879170060        5.0049329563140539       -7.5003243805968935        555.91024738197382     
   6164.5483764213886        4.9910324994056952       -7.7899820983652281        563.70022948033909     
   6268.7977742360345        4.9761735437974579       -8.0940957528027049        571.79432523314176     
   6373.0471720506803        4.9611985483267151       -8.3951942223635463        580.18951945550532     
   6461.4506613975000        4.9484213295291051       -8.6483080028657895        588.83782745837107     
   6555.1583601051288        4.9347951925980142       -8.9140659127731272        597.75189337114421     
   6648.8660588127577        4.9210924507877287       -9.1772369572332657        606.92913032837748     
   6748.1962194428443        4.9064880465606304       -9.4532474925019478        616.38237782087947     
   6853.4861897107357        4.8909256470677978       -9.7424602256339874        626.12483804651345     
   6958.7761599786272        4.8752888723067933       -10.028280586166089        636.15311863267948     
   7064.0661302465187        4.8595848419591992       -10.310683167597098        646.46380180027654     
   7148.2981064608321        4.8469821236713901       -10.534407848675819        656.99820964895241     
