 #              _____________________  _______________________             #
 #              ___  __ \__  __ \_  / / /_  /___  ____/_  ___/             #
 #              __  / / /_  /_/ /  / / /_  __/_  __/  _____ \              #
 #              _  /_/ /_  _, _// /_/ / / /_ _  /___  ____/ /              #
 #              /_____/ /_/ |_| \____/  \__/ /_____/  /____/               #
 #                                                                         #
  
 #        time                      T            heat flux [W.L-2]   in    x              directions   cumulative flux
 #-----------------------------------------------------------------------------------------------

   0.0000000000000000        5.5797999999999996       -5.0279443959888326        5.0279443959888326     
   1.0000000000000000        5.5792416555167250       -4.8821448880688916        9.9100892840577242     
   1.9540000000000002        5.5787377224715966       -4.7544220840464204        14.664511368104144     
   2.8641160000000001        5.5782810877354692       -4.6420262399713881        19.306537608075530     
   3.8288389600000006        5.5778219572953764       -4.5325415230681347        23.839079131143663     
   4.8514452976000007        5.5773608931929601       -4.4263024164201124        28.265381547563777     
   5.9354080154560007        5.5768984085376658       -4.3236161724786450        32.588997720042421     
   7.0844084963833609        5.5764349561482982       -4.2247579111240361        36.813755631166458     
   8.3023490061663630        5.5759709178448844       -4.1299662574766920        40.943721888643154     
   9.5933659465363448        5.5755065947150042       -4.0394396956389054        44.983161584282058     
   10.961843903328527        5.5750421986587533       -3.9533338011209995        48.936495385403056     
   12.412430537528239        5.5745778454775001       -3.8717594907878330        52.808254876190887     
   13.950052369779934        5.5741135497135144       -3.7947823947545993        56.603037270945485     
   15.579931511966731        5.5736492213720945       -3.7224234105588261        60.325460681504310     
   17.307603402684734        5.5731846645681067       -3.6546604478217866        63.980121129326093     
   19.138935606845820        5.5727195780401271       -3.5914313141822389        67.571552443508338     
   21.080147743256571        5.5722535573742640       -3.5326376340499350        71.104190077558272     
   23.137832607851966        5.5717860986840986       -3.4781496348585645        74.582339712416839     
   25.318978564323086        5.5713166034115078       -3.4278115855631950        78.010151297980030     
   27.630993278182473        5.5708443838535695       -3.3814476335696102        81.391598931549638     
   30.081728874873424        5.5703686689903256       -3.3388677630405290        84.730466694590163     
   32.679508607365833        5.5698886101916703       -3.2998735924327915        88.030340287022952     
   35.433155123807786        5.5694032864208909       -3.2642637435683315        91.294604030591287     
   38.352020431236255        5.5689117086257145       -3.2318385480616310        94.526442578652919     
   41.446017657110431        5.5684128231094991       -3.2024039071166941        97.728846485769608     
   44.725654716537058        5.5679055137967488       -3.1757741834011646        100.90462066917077     
   48.202069999529286        5.5673886034367364       -3.1517740732192903        104.05639474239005     
   51.887070199501046        5.5668608539139308       -3.1302394771097157        107.18663421949977     
   55.793170411471110        5.5663209659415491       -3.1110174508134731        110.29765167031324     
   59.933636636159378        5.5657675784939116       -3.0939653705291268        113.39161704084238     
   64.322530834328944        5.5651992683769773       -3.0789494823846546        116.47056652322703     
   68.974758684388689        5.5646145503409805       -3.0658430240034904        119.53640954723052     
   73.626986534448434        5.5640451911618278       -3.0550509243425932        122.59146047157311     
   78.558348055511757        5.5634566605029123       -3.0457438043613707        125.63720427593448     
   83.785591267838882        5.5628474629443625       -3.0378324511021559        128.67503672703663     
   89.326469072905638        5.5622160448028355       -3.0312245251693968        131.70626125220602     
   95.199799546276395        5.5615607995783147       -3.0258232944128518        134.73208454661886     
   101.42552984804939        5.5608800747547429       -3.0215265785095258        137.75361112512840     
   108.02480396792878        5.5601721798459280       -3.0182259522152801        140.77183707734369     
   114.62407808780816        5.5594764477028535       -3.0158989492791619        143.78773602662284     
   121.22335220768754        5.5587916512216298       -3.0143205052229094        146.80205653184575     
   128.21858277475968        5.5580768721074261       -3.0132746277179998        149.81533115956375     
   135.21381334183184        5.5573722351932053       -3.0126849943292195        152.82801615389297     
   142.62875774292831        5.5566357843333565       -3.0124115367825990        155.84042769067557     
   150.48859880809059        5.5558660042596646       -3.0123673379249616        158.85279502860053     
   158.82003033716259        5.5550613671831020       -3.0124611678145503        161.86525619641509     
   167.65134775797893        5.5542203368174921       -3.0126002040550559        164.87785640047014     
   177.01254422404423        5.5533413691610267       -3.0126941338699931        167.89055053434012     
   186.93541247807346        5.5524229078662213       -3.0126611739305265        170.90321170827065     
   197.45365282734443        5.5514633710452843       -3.0124367059512531        173.91564841422189     
   208.60298759757165        5.5504611250229203       -3.0119854019682681        176.92763381619017     
   219.75232236779888        5.5494728966968614       -3.0113611151360615        179.93899493132622     
   230.90165713802611        5.5484978603314730       -3.0106395395649002        182.94963447089111     
   242.05099190825334        5.5475351795092198       -3.0099272921412474        185.95956176303235     
   253.20032667848056        5.5465839833560713       -3.0093582208386658        188.96891998387102     
   265.01862153492141        5.5455875143530413       -3.0091053105169188        191.97802529438795     
   276.83691639136225        5.5446016524341282       -3.0094181146967069        194.98744340908465     
   286.29155227651495        5.5438191010343463       -3.0101500690724738        197.99759347815711     
   296.31346631477680        5.5429956633888544       -3.0116198530268341        201.00921333118396     
   306.33538035303866        5.5421774041785463       -3.0139447148895506        204.02315804607352     
   316.95860923359623        5.5413147338048043       -3.0175703403075866        207.04072838638112     
   328.21923184698727        5.5404041193409288       -3.0229650433691013        210.06369342975023     
   340.15549181718177        5.5394413125157946       -3.0307268674190335        213.09442029716925     
   352.80792738558790        5.5384211442058513       -3.0416109545216852        216.13603125169092     
   366.21950908809845        5.5373372674574428       -3.0565602252923108        219.19259147698324     
   380.43578569275962        5.5361818403498484       -3.0767389317331513        222.26933040871640     
   395.50503889370043        5.5349451400993663       -3.1035682888372418        225.37289869755364     
   411.47844728669770        5.5336151005572232       -3.1387629732394657        228.51166167079310     
   428.41026018327483        5.5321767668374449       -3.1843668303927970        231.69602850118591     
   445.34207307985196        5.5307028430286644       -3.2389071681857580        234.93493566937167     
   462.27388597642909        5.5291861958995483       -3.3029487787668579        238.23788444813852     
   479.20569887300621        5.5276197278259112       -3.3769783837010516        241.61486283183956     
   492.75114919026788        5.5263310703707118       -3.4428109180730604        245.05767374991262     
   507.10932652656527        5.5249210128042252       -3.5202356313752325        248.57790938128787     
   521.46750386286271        5.5234627596947066       -3.6054782186127445        252.18338759990061     
   536.68717183933791        5.5218581090429026       -3.7047786422005666        255.88816624210119     
   552.82001989440164        5.5200855624607685       -3.8202149793444540        259.70838122144562     
   569.92083883276928        5.5181200385210145       -3.9540960390103188        263.66247726045594     
   588.04770690743896        5.5159323553255284       -4.1089681145642309        267.77144537502016     
   607.26218706658881        5.5134886701963142       -4.2876174971222918        272.05906287214248     
   627.62953603528763        5.5107498811229956       -4.4930677236071332        276.55213059574959     
   649.21892594210840        5.5076709973035545       -4.7285703958740468        281.28070099162363     
   672.10367924333843        5.5042004894270811       -4.9975882792586157        286.27828927088223     
   696.36151774264226        5.5002796342626903       -5.3037693068833223        291.58205857776557     
   722.07482655190427        5.4958418725487039       -5.6509101174647736        297.23296869523034     
   749.33093388972202        5.4908122039138831       -6.0429078818749140        303.27587657710524     
   776.58704122753977        5.4854498741274469       -6.4574899073062468        309.73336648441148     
   803.84314856535752        5.4797498829946187       -6.8931478758304481        316.62651436024191     
   832.73462234344436        5.4733249023436903       -7.3767805346907922        324.00329489493271     
   855.84780136591382        5.4679388688400135       -7.7767047765761630        331.77999967150885     
   878.96098038838329        5.4623066919498307       -8.1886877830002973        339.96868745450917     
   903.46095015220089        5.4560608825243833       -8.6378014681800259        348.60648892268921     
   929.43091810184751        5.4491326979817938       -9.1264701222784250        357.73295904496763     
   956.95908412847302        5.4414470068268832       -9.6570662541766197        367.39002529914427     
   986.13894011669606        5.4329220902881721       -10.231863516210392        377.62188881535468     
   1017.0695874642124        5.4234695265081960       -10.852985300172334        388.47487411552703     
   1049.8560736525799        5.4129941683695169       -11.522351690692512        399.99722580621955     
   1084.6097490122493        5.4013942183579928       -12.241628758134761        412.23885456435431     
   1121.4486448934988        5.3885613945186241       -13.012184509709558        425.25103907406390     
   1158.2875407747483        5.3752133238686284       -13.788289338729101        439.03932841279300     
   1195.1264366559978        5.3613723468419341       -14.567630642139287        453.60695905493230     
   1231.9653325372474        5.3470611672292385       -15.348147400270749        468.95510645520307     
   1268.8042284184969        5.3323025740941761       -16.128013298627646        485.08311975383072     
   1307.8534580526214        5.3161827210868271       -16.952031853243390        502.03515160707411     
   1349.2456414647934        5.2985927753555089       -17.820547274610210        519.85569888168436     
   1390.6378248769654        5.2805309300694425       -18.682391298049737        538.53809017973413     
   1434.5135392938678        5.2608911262888398       -19.586661600439538        558.12475178017371     
   1481.0217965757843        5.2395591701140720       -20.532908321856635        578.65766010203038     
   1530.3205492946158        5.2164178802799501       -21.520231057263985        600.17789115929440     
   1582.5772271765773        5.1913480929890259       -22.547221548830759        622.72511270812515     
   1634.8339050585387        5.1657908827890466       -23.553014207042125        646.27812691516726     
   1687.0905829405001        5.1397965098427623       -24.536272376641119        670.81439929180840     
   1739.3472608224615        5.1134128001061168       -25.495931606896061        696.31033089870448     
   1794.7393393773407        5.0850623473615997       -26.485717009070704        722.79604790777523     
   1853.4549426455126        5.0546394355570321       -27.503331510762536        750.29937941853780     
   1915.6934821097748        5.0220392355347805       -28.546189225758159        778.84556864429601     
   1977.9320215740370        4.9891466554848467       -29.553334688822982        808.39890333311894     
   2040.1705610382992        4.9560153120692600       -30.525258567634175        838.92416190075312     
   2102.4091005025612        4.9226932331043436       -31.462715885946789        870.38687778669987     
   2164.6476399668231        4.8892234870102058       -32.366588355393063        902.75346614209298     
   2226.8861794310851        4.8556449621468998       -33.237772037273089        935.99123817936606     
   2289.1247188953471        4.8219931491251327       -34.077104657211827        970.06834283657793     
   2355.0975707274652        4.7862787366851602       -34.931895460985828        1005.0002382975638     
   2425.0287936695099        4.7484153872716988       -35.799685581842247        1040.7999238794059     
   2494.9600166115547        4.7105856244341311       -36.630068078511115        1077.4299919579171     
   2550.9049949651908        4.6803622739617747       -37.270913550408196        1114.7009055083254     
   2610.2066720200451        4.6483916959373364       -37.924512429683375        1152.6254179380087     
   2669.5083490748993        4.6165060462938765       -38.553156369962139        1191.1785743079708     
   2732.3681267530446        4.5828226471488724       -39.192419544053109        1230.3709938520240     
   2798.9994910918786        4.5472689336856504       -39.840732411822991        1270.2117262638469     
   2869.6287372910429        4.5097731566017547       -40.496400629208445        1310.7081268930554     
   2944.4957382621569        4.4702644458751220       -41.157689226730099        1351.8658161197854     
   3019.3627392332710        4.4310109054711768       -41.786996482470485        1393.6528126022558     
   3094.2297402043851        4.3920279687444639       -42.385951961396408        1436.0387645636522     
   3169.0967411754991        4.3533290033699377       -42.955996715635187        1478.9947612792873     
   3248.4557622048801        4.3126410439849563       -43.529302332355904        1522.5240636116432     
   3332.5763244960240        4.2699003029317799       -44.103905485362183        1566.6279690970055     
   3416.6968867871678        4.2275610381324702       -44.646848447290367        1611.2748175442957     
   3500.8174490783117        4.1856355139812305       -45.159320819068064        1656.4341383633639     
   3589.9852451069241        4.1416727850666266       -45.669628593305376        1702.1037669566692     
   3661.3194819298142        4.1068146700574317       -46.057568042403446        1748.1613349990728     
   3732.6537187527042        4.0722732450628030       -46.426062332871773        1794.5873973319447     
   3803.9879555755942        4.0380518351110828       -46.776006704350564        1841.3634040362952     
   3879.6022466078575        4.0021393208744733       -47.127139909752735        1888.4905439460479     
   3959.7533951020564        3.9644806650995386       -47.478272311175900        1935.9688162572238     
   4044.7136125059073        3.9250216571398946       -47.828232626518634        1983.7970488837425     
   4129.6738299097588        3.8860202360448626       -48.157335273365582        2031.9543841571081     
   4197.6420038328397        3.8551106070844678       -48.407939067051807        2080.3623232241598     
   4265.6101777559206        3.8244907508895309       -48.646486269627886        2129.0088094937878     
   4333.5783516790016        3.7941587217504082       -48.873532947496926        2177.8823424412849     
   4405.6246160374676        3.7623276859110826       -49.101881890380895        2226.9842243316657     
   4481.9936562574412        3.7289440147881394       -49.330801865738991        2276.3150261974047     
   4562.9448388906130        3.6939544694384052       -49.559469715148957        2325.8744959125538     
   4643.8960215237848        3.6593584121044476       -49.774687691648872        2375.6491836042028     
   4729.7042751149474        3.6231259094059407       -49.988039897266063        2425.6372235014687     
   4820.6610239215797        3.5852111871188228       -50.197889220966154        2475.8351127224350     
   4911.6177727282120        3.5477860971485145       -50.391963228067723        2526.2270759505027     
   4969.8300919644562        3.5240337393320713       -50.509927012958343        2576.7370029634612     
   5031.5351503548754        3.4990790101213083       -50.628304235701613        2627.3653071991630     
   5093.2402087452947        3.4743449083039595       -50.740391756453981        2678.1056989556168     
   5158.6475706391393        3.4483717420324194       -50.852537477826708        2728.9582364334437     
   5227.9793742466145        3.4211118793513853       -50.964309030943859        2779.9225454643874     
   5301.4710860705381        3.3925178371379339       -51.075113815116723        2830.9976592795042     
   5379.3723006038972        3.3625430310275948       -51.184156693132877        2882.1818159726372     
   5457.2735151372563        3.3328998594721067       -51.284977474148427        2933.4667934467857     
   5535.1747296706153        3.3035849809946156       -51.377865588493904        2984.8446590352796     
   5617.7500170759758        3.2728753920002713       -51.467900025242329        3036.3125590605218     
   5700.3253044813364        3.2425245873332944       -51.550044342228539        3087.8626034027502     
   5787.8551091310183        3.2107489428848845       -51.628842987551884        3139.4914463903019     
   5880.6367020596808        3.1775031427767262       -51.703764841953031        3191.1952112322551     
   5973.4182949883434        3.1446849228939078       -51.770660065986441        3242.9658712982414     
   6066.1998879170060        3.1122866747430713       -51.829814205377133        3294.7956855036186     
   6164.5483764213886        3.0784104099673204       -51.883694665801087        3346.6793801694198     
   6268.7977742360345        3.0430207693451146       -51.930647486009661        3398.6100276554293     
   6373.0471720506803        3.0081444944691720       -51.967900442333040        3450.5779280977622     
   6461.4506613975000        2.9789316434660851       -51.993438466889167        3502.5713665646513     
   6555.1583601051288        2.9483613772965080       -52.014958498969200        3554.5863250636203     
   6648.8660588127577        2.9181755961028171       -52.031491957189083        3606.6178170208095     
   6748.1962194428443        2.8866015950314758       -52.043312586163289        3658.6611296069727     
   6853.4861897107357        2.8536012196772331       -52.049123979275883        3710.7102535862487     
   6958.7761599786272        2.8210626754819748       -52.048213825642542        3762.7584674118912     
   7064.0661302465187        2.7889781341934192       -52.041055112745219        3814.7995225246364     
   7148.2981064608321        2.7635958973143309       -52.031751337319072        3866.8312738619557     
