 #              _____________________  _______________________             #
 #              ___  __ \__  __ \_  / / /_  /___  ____/_  ___/             #
 #              __  / / /_  /_/ /  / / /_  __/_  __/  _____ \              #
 #              _  /_/ /_  _, _// /_/ / / /_ _  /___  ____/ /              #
 #              /_____/ /_/ |_| \____/  \__/ /_____/  /____/               #
 #                                                                         #
  
 #        time                      T            heat flux [W.L-2]   in    x              directions   cumulative flux
 #-----------------------------------------------------------------------------------------------

   0.0000000000000000          5.3307000000000002          -3.3483709793450664          0.0000000000000000     
   1.0000000000000000          5.3312589547113536          -3.4943289001589095          0.0000000000000000     
   2.0060000000000002          5.3317894236307213          -3.6285681676663954          3.6285681676663954     
   3.0180360000000004          5.3322936039080080          -3.7520822282565187          7.4031628892924530     
   4.0361442160000003          5.3327735169420674          -3.8657810544459590          11.315472484509723     
   5.0603610812960005          5.3332310221652168          -3.9704979109382292          15.357869029246769     
   6.0907232477837763          5.3336678297905209          -4.0669956006417269          19.523354514508661     
   7.1272675872704792          5.3340855125950721          -4.1559722279246145          23.805511063136095     
   8.1700311927941023          5.3344855168077334          -4.2380665139903062          28.198454918580889     
   9.2190513799508675          5.3348691721654129          -4.3138626970242377          32.696793938263745     
   10.274365688230573          5.3352377011976637          -4.3838950476214507          37.295588341595213     
   11.336011882359955          5.3355922277954759          -4.4486520280128818          41.990314479314733     
   12.404027953654115          5.3359337851163655          -4.5085801217228019          46.776831406469135     
   13.478452121376039          5.3362633228743102          -4.5640873585124666          51.651350056150960     
   14.559322834104295          5.3365817140597906          -4.6155465578008759          56.610404825097959     
   15.646678771108920          5.3368897611320403          -4.6632983121747804          61.650827395442789     
   16.740558843735574          5.3371882017226708          -4.7076537311296178          66.769722629348550     
   17.841002196797987          5.3374777138870533          -4.7488969637813820          71.964446384986218     
   18.948048209978776          5.3377589209372704          -4.7872875179991077          77.232585113366994     
   20.061736499238648          5.3380323958879972          -4.8230623921671283          82.571937105937806     
   21.182106918234080          5.3382986655443680          -4.8564380346300933          87.980495272621567     
   22.309199559743483          5.3385582142587715          -4.8876121448051206          93.456431339184036     
   23.443054757101944          5.3388114873815073          -4.9167653289022617          98.998081361418343     
   24.583713085644554          5.3390588944283586          -4.9440626222643322          104.60393246173845     
   25.731215364158420          5.3393008119863925          -4.9696548894193819          110.27261070133719     
   26.885602656343369          5.3395375863776628          -4.9936801121038057          116.00287000814569     
   28.046916272281429          5.3397695360989967          -5.0162645747264794          121.79358208744749     
   29.215197769915118          5.3399969540546008          -5.0375239559998306          127.64372724816425     
   30.390488956534607          5.3402201095969435          -5.0575643347688812          133.55238608356677     
   31.572831890273815          5.3404392503901184          -5.0764831174215175          139.51873195049492     
   32.762268881615455          5.3406546041087939          -5.0943698936501924          145.54202419610598     
   33.958842494905149          5.3408663799848268          -5.1113072267794282          151.62160208574932     
   35.162595549874581          5.3410747702125851          -5.1273713843206403          157.75687938976404     
   36.373571123173825          5.3412799512232256          -5.1426330139434464          163.94733959088512     
   37.591812549912866          5.3414820848372839          -5.1571577695680855          170.19253167748249     
   38.817363425212342          5.3416813193042394          -5.1710068918774015          176.49206649112065     
   40.050267605763615          5.3418777902369854          -5.1842377471257075          182.84561359987114     
   41.290569211398200          5.3420716214485191          -5.1969043277607962          189.25289867149243     
   42.538312626666588          5.3422629256976286          -5.2090577180379007          195.71370132301806     
   43.793542502426590          5.3424518053497581          -5.2207465274715874          202.22785342545603     
   45.056303757441150          5.3426383529588186          -5.2320172946954910          208.79523784425083     
   46.326641579985797          5.3428226517752657          -5.2429148640203254          215.41578759787564     
   47.604601429465710          5.3430047761853441          -5.2534827367322450          222.08948541843196     
   48.890229038042506          5.3431847920860891          -5.2637633989579591          228.81636369946216     
   50.183570412270761          5.3433627572003433          -5.2737986277131750          235.59650481732461     
   51.484671834744383          5.3435387213357313          -5.2836297765491080          242.43004181343997     
   52.793579865752847          5.3437127265913347          -5.2932980420686508          249.31715942555235     
   54.110341344947365          5.3438848075155425          -5.3028447124157196          256.25809545682404     
   55.435003393017048          5.3440549912183455          -5.3123113986940202          263.25314247211026     
   56.767613413375152          5.3442232974412009          -5.3217402501830522          270.30264981121263     
   58.108219093855404          5.3443897385873811          -5.3311741540764075          277.40702590920898     
   59.456868408418536          5.3445543197156180          -5.3406569203900363          284.56674091418000     
   60.813609618869044          5.3447170384997049          -5.3502334526043782          291.78232959278762     
   62.178491276582257          5.3448778851566079          -5.3599499045312138          299.05439451421540     
   63.551562224241749          5.3450368423455501          -5.3698538238326607          306.38360950296578     
   64.932871597587194          5.3451938850404206          -5.3799942825700366          313.77072335093686     
   66.322468827172713          5.3453489803778078          -5.3904219951218604          321.21656377908619     
   67.720403640135743          5.3455020874828625          -5.4011894237683533          328.72204163882134     
   69.126726061976555          5.3456531572751187          -5.4123508722152449          336.28815534306187     
   70.541486418348413          5.3458021322564013          -5.4239625673165150          343.91599551670436     
   71.964735336858510          5.3459489462828058          -5.4360827292279623          351.60674985597382     
   73.396523748879659          5.3460935243227672          -5.4487716302242140          359.36170818589892     
   74.836902891372944          5.3462357822031024          -5.4620916424015356          367.18226770488701     
   76.285924308721178          5.3463756263449680          -5.4761072744985491          375.06993840513042     
   77.743639854573502          5.3465129534915077          -5.4908851980493294          383.02634865730431     
   79.210101693700949          5.3466476504290164          -5.5064942631148890          391.05325094779352     
   80.685362303863158          5.3467795937033573          -5.5230055038277790          399.15252775644780     
   82.169474477686336          5.3469086493333107          -5.5404921340025561          407.32619756265530     
   83.662491324552448          5.3470346725225228          -5.5590295330815040          415.57642096734412     
   85.164466272499766          5.3471575073716497          -5.5786952226888751          423.90550691835011     
   86.675453070134765          5.3472769865922265          -5.5995688340831808          432.31591902644959     
   88.195505788555579          5.3473929312238040          -5.6217320668194679          440.81028195925512     
   89.724678823286908          5.3475051503557518          -5.6452686388946320          449.39138790002266     
   91.263026896226634          5.3476134408551683          -5.6702642286757650          458.06220305831533     
   92.810605057603993          5.3477175871022427          -5.6968064088730728          466.82587421931589     
   94.367468687949611          5.3478173607343971          -5.7249845728043143          475.68573531841014     
   95.933673500077305          5.3479125204004951          -5.7548898531797530          484.64531402747076     
   97.509275541077770          5.3480028115263707          -5.7866150335955373          493.70833833901855     
   99.094331194324241          5.3480879660929226          -5.8202544529212172          502.87874313418325     
   100.68889718149019          5.3481677024279826          -5.8559039027265065          512.16067672006795     
   102.29303056457913          5.3482417250131506          -5.8936605178806545          521.55850732178328     
   103.90678874796660          5.3483097243067919          -5.9336226604472753          531.07682951405980     
   105.53022948045439          5.3483713765843675          -5.9758897970010780          540.72047057699206     
   107.16341085733713          5.3484263437972404          -6.0205623694723602          550.49449676007680     
   108.80639132248115          5.3484742734511190          -6.0677416596722269          560.40421943838896     
   110.45922967041604          5.3485147985052564          -6.1175296476417156          570.45520114440365     
   112.12198504843853          5.3485475372934959          -6.1700288640169596          580.65326145871597     
   113.79471695872917          5.3485720934682472          -6.2253422366260054          591.00448274269650     
   115.47748526048154          5.3485880559684142          -6.2835729315857218          601.51521569599834     
   117.17035017204444          5.3485949990122519          -6.3448241892063972          612.19208472178661     
   118.87337227307670          5.3485924821160920          -6.4091991550728675          623.04199308262798     
   120.58661250671516          5.3485800501397875          -6.4768007067121571          634.07212783014018     
   122.31013218175545          5.3485572333596547          -6.5477312763301985          645.28996449180192     
   124.04399297484598          5.3485235475696031          -6.6220926701371150          656.70327149872332     
   125.78825693269505          5.3484784942110473          -6.6999858848469769          668.32011433871946     
   127.54298647429123          5.3484215605320777          -6.7815109219821137          680.14885941969271     
   129.30824439313696          5.3483522197762605          -6.8667666006544801          692.19817762910702     
   131.08409385949579          5.3482699314012914          -6.9558503695416922          704.47704757624660     
   132.87059842265276          5.3481741413276200          -7.0488581188083614          716.99475850497151     
   134.66782201318867          5.3480642822170017          -7.1458839927446283          729.76091286580015     
   136.47582894526781          5.3479397737807881          -7.2470202039146212          742.78542853736587     
   138.29468391893943          5.3478000231176486          -7.3523568496274034          756.07854068861172     
   140.12445202245306          5.3476444250802251          -7.4619817315266950          769.65080327444571     
   141.96519873458777          5.3474723626701195          -7.5759801791155565          783.51309015904292     
   143.81698992699529          5.3472832074604293          -7.6944348779896030          797.67659586243701     
   145.67989186655726          5.3470763200449305          -7.8174257035624510          812.15283592759420     
   147.55397121775661          5.3468510505128499          -7.9450295610192194          826.95364690669408     
   149.43929504506315          5.3466067389480560          -8.0773202322035793          842.09118596689154     
   151.33593081533354          5.3463427159513452          -8.2143682301025223          857.57793011737363     
   153.24394640022555          5.3460583031844280          -8.3562406615638043          873.42667506108330     
   155.16341007862690          5.3457528139340518          -8.5030010988007678          889.65053367594896     
   157.09439053909867          5.3454255536946622          -8.6547094602159760          906.26293413195015     
   159.03695688233327          5.3450758207678666          -8.8114219009913182          923.27761765173727     
   160.99117862362726          5.3447029068769147          -8.9731907138595925          940.70863592390606     
   162.95712569536903          5.3443060977943571          -9.1400642403856622          958.57034817929150     
   164.93486844954126          5.3438846739809387          -9.3120867930422406          976.87741794187809     
   166.92447766023849          5.3434379112338242          -9.4892985882966983          995.64480946705851     
   168.92602452619994          5.3429650813421361          -9.6717356908603485          1014.8877838810236     
   170.93958067335714          5.3424654527478292          -9.8594299691942329          1034.6218950360305     
   172.96521815739729          5.3419382912099147          -10.052409062316448          1054.8629850971965     
   175.00300946634167          5.3413828604700022          -10.250696357872876          1075.6271798772177     
   177.05302752313972          5.3407984229172092          -10.454310981410469          1096.9308839361379     
   179.11534568827855          5.3401842402504718          -10.663267796718079          1118.7907754638832     
   181.19003776240822          5.3395395741363201          -10.877577417055468          1141.2238009637806     
   183.27717798898269          5.3388636868602699          -11.097246227061389          1164.2471697557303     
   185.37684105691659          5.3381558419699733          -11.322276415065453          1187.8783483180084     
   187.48910210325809          5.3374153049083688          -11.552666015508407          1212.1350544869465     
   189.61403671587763          5.3366413436351365          -11.788408961141293          1237.0352515339082     
   191.75172093617289          5.3358332292348019          -12.029495144632985          1262.5971421390775     
   193.90223126178992          5.3349902365099426          -12.275910489201625          1288.8391622816009     
   196.06564464936065          5.3341116445580079          -12.527637027850936          1315.7799750655768     
   198.24203851725682          5.3331967373303568          -12.784652990789086          1343.4384645012963     
   200.43149074836035          5.3322448041721975          -13.046932900577904          1371.8337292609667     
   202.63407969285052          5.3312551403421988          -13.314447674554968          1400.9850764279324     
   204.84988417100763          5.3302270475106344          -13.587164734067450          1430.9120152581561     
   207.07898347603367          5.3291598342350142          -13.865048120041656          1461.6342509724082     
   209.32145737688987          5.3280528164122325          -14.148058614414175          1493.1716785972665     
   211.57738612115119          5.3269053177063643          -14.436153866960266          1525.5443768726691     
   213.84685043787809          5.3257166699513281          -14.729288527038973          1558.7726022433351     
   216.12993154050537          5.3244862135276936          -15.027414379801549          1592.8767829509634     
   218.42671112974841          5.3232132977130568          -15.330480486408238          1627.8775132436781     
   220.73727139652689          5.3218972810053895          -15.638433327800216          1663.7955477187077     
   223.06169502490604          5.3205375314189709          -15.951216951610968          1700.6517958138634     
   225.40006519505548          5.3191334267524564          -16.268773121787255          1738.4673164628855     
   227.75246558622581          5.3176843548288097          -16.591041470526701          1777.2633129292774     
   230.11898037974316          5.3161897137068399          -16.917959652146298          1817.0611278327901     
   232.49969426202162          5.3146489118641602          -17.249463498526673          1857.8822383822912     
   234.89469242759375          5.3130613683514429          -17.585487175784884          1899.7482518283120     
   237.30406058215931          5.3114265129178904          -17.925963341865920          1942.6809011481942     
   239.72788494565228          5.3097437861079086          -18.270823304759546          1986.7020409763761     
   242.16625225532619          5.3080126393289877          -18.619997181086141          2031.8336437920630     
   244.61924976885814          5.3062325348909738          -18.973414054230783          2078.0977963748069     
   247.08696526747130          5.3044029460173467          -19.331002130513308          2125.5166965350368     
   249.56948705907612          5.3025233568296279          -19.692688891154674          2174.1126501211061     
   252.06690398143058          5.3005932623067791          -20.058401237298540          2223.9080682974532     
   254.57930540531916          5.2986121682222400          -20.428065624996233          2274.9254650802859     
   257.10678123775108          5.2965795910620566          -20.801608186919864          2327.1874551082756     
   259.64942192517759          5.2944950579283629          -21.178954837616402          2380.7167516165182     
   262.20731845672867          5.2923581064332126          -21.560031359319598          2435.5361645729158     
   264.78056236746903          5.2901682845883933          -21.944763465682144          2491.6685989274929     
   267.36924574167386          5.2879251506972658          -22.333076841559130          2549.1370529181318     
   269.97346121612389          5.2856282732548401          -22.724897157966147          2607.9646163714729     
   272.59330198342064          5.2832772308621179          -23.120150062315247          2668.1744689353613     
   275.22886179532117          5.2808716121604373          -23.518761144959651          2729.7898781792414     
   277.88023496609310          5.2784110157908746          -23.920655883850923          2792.8341975010208     
   280.54751637588964          5.2758950503831112          -24.325759569761928          2857.3308637829359     
   283.23080147414498          5.2733233345772401          -24.733997215020498          2923.3033947445201     
   285.93018628298984          5.2706954970810793          -25.145293449037911          2990.7753859475811     
   288.64576740068776          5.2680111767645572          -25.559572404146937          3059.7705074159057     
   291.37764200509190          5.2652700227917641          -25.976757595352638          3130.3124998408621     
   294.12590785712246          5.2624716947902810          -26.396771797586975          3202.4251703529408     
   296.89066330426522          5.2596158630564718          -26.819536923944959          3276.1323878482913     
