 #              _____________________  _______________________             #
 #              ___  __ \__  __ \_  / / /_  /___  ____/_  ___/             #
 #              __  / / /_  /_/ /  / / /_  __/_  __/  _____ \              #
 #              _  /_/ /_  _, _// /_/ / / /_ _  /___  ____/ /              #
 #              /_____/ /_/ |_| \____/  \__/ /_____/  /____/               #
 #                                                                         #
  
 #        time                      T            heat flux [W.L-2]   in    x              directions   cumulative flux
 #-----------------------------------------------------------------------------------------------

   0.0000000000000000          5.5797999999999996          -5.0279562613184625          0.0000000000000000     
   1.0000000000000000          5.5792416544938428          -4.8821551880863581          0.0000000000000000     
   2.0060000000000002          5.5787117634291752          -4.7480607493474638          4.7480607493474638     
   3.0180360000000004          5.5782081318919072          -4.6246809721806672          9.4004898073612146     
   4.0361442160000003          5.5777287403283680          -4.5111075141268628          13.965893011528108     
   5.0603610812960005          5.5772717307048829          -4.4065089159059863          18.452195942689244     
   6.0907232477837763          5.5768353937004083          -4.3101243619837559          22.866698005756170     
   7.1272675872704792          5.5764181568616280          -4.2212579141821287          27.216122455516540     
   8.1700311927941023          5.5760185736541867          -4.1392731856221268          31.506662645662246     
   9.2190513799508675          5.5756353133477647          -4.0635884242899989          35.744024762338945     
   10.274365688230573          5.5752671516765409          -3.9936719774087153          39.933467287522959     
   11.336011882359955          5.5749129622202247          -3.9290381095970273          44.079837422356945     
   12.404027953654115          5.5745717084542870          -3.8692431494920694          48.187604686176392     
   13.478452121376039          5.5742424364212972          -3.8138819411412483          52.260891893333813     
   14.559322834104295          5.5739242679783549          -3.7625845779775160          56.303503697010655     
   15.646678771108920          5.5736163945785302          -3.7150133986511999          60.318952877005799     
   16.740558843735574          5.5733180715469901          -3.6708602253323370          64.310484536935050     
   17.841002196797987          5.5730286128150954          -3.6298438264113257          68.281098365393277     
   18.948048209978776          5.5727473860782082          -3.5917075867122361          72.233569105334595     
   20.061736499238648          5.5724738083452605          -3.5562173694934329          76.170465366236570     
   21.182106918234080          5.5722073418503486          -3.5231595555803352          80.094166904480403     
   22.309199559743483          5.5719474902986166          -3.4923392459867793          84.006880488780794     
   23.443054757101944          5.5716937954206651          -3.4635786153314592          87.910654459410210     
   24.583713085644554          5.5714458338115183          -3.4367154042536594          91.807392082365112     
   25.731215364158420          5.5712032140318826          -3.4116015398726010          95.698863792489590     
   26.885602656343369          5.5709655739510238          -3.3881018741105060          99.586718412868493     
   28.046916272281429          5.5707325783120876          -3.3660930304503167          103.47249343153267     
   29.215197769915118          5.5705039165020906          -3.3454623503826695          107.35762441064021     
   30.390488956534607          5.5702793005101094          -3.3261069314358753          111.24345359778791     
   31.572831890273815          5.5700584630584125          -3.3079327492967092          115.13123780396631     
   32.762268881615455          5.5698411558924494          -3.2908538570866548          119.02215560786114     
   33.958842494905149          5.5696271482166511          -3.2747916553888703          122.91731394171759     
   35.162595549874581          5.5694162252639972          -3.2596742270992904          126.81775410978508     
   36.373571123173825          5.5692081869882326          -3.2454357316499203          130.72445728646562     
   37.591812549912866          5.5690028468684849          -3.2320158535640626          134.63834953764763     
   38.817363425212342          5.5688000308168277          -3.2193593007020600          138.56030640532052     
   40.050267605763615          5.5685995761800671          -3.2074153479233378          142.49115709241696     
   41.290569211398200          5.5684013308277605          -3.1961374222360299          146.43168828190812     
   42.538312626666588          5.5682051523190790          -3.1854827258177130          150.38264762146105     
   43.793542502426590          5.5680109071417290          -3.1754118935786226          154.34474690243871     
   45.056303757441150          5.5678184700167312          -3.1658886822316141          158.31866495970630     
   46.326641579985797          5.5676277232633087          -3.1568796880566383          162.30505031652666     
   47.604601429465710          5.5674385562186695          -3.1483540907995358          166.30452359683247     
   48.890229038042506          5.5672508647078578          -3.1402834213612758          170.31767972531961     
   50.183570412270761          5.5670645505592757          -3.1326413511128610          174.34508993407962     
   51.484671834744383          5.5668795211618471          -3.1254035008807803          178.38730359292657     
   52.793579865752847          5.5666956890601273          -3.1185472677961110          182.44484987910732     
   54.110341344947365          5.5665129715839923          -3.1120516683679731          186.51823930074747     
   55.435003393017048          5.5663312905098090          -3.1058971962754365          190.60796508714122     
   56.767613413375152          5.5661505717503044          -3.1000656935185336          194.71450445786806     
   58.108219093855404          5.5659707450705218          -3.0945402336713492          198.83831978165981     
   59.456868408418536          5.5657917438275604          -3.0893050161116560          202.97985963499522     
   60.813609618869044          5.5656135047319228          -3.0843452701775842          207.13955976949626     
   62.178491276582257          5.5654359676285647          -3.0796471683309097          211.31784399641802     
   63.551562224241749          5.5652590752958426          -3.0751977474550825          215.51512499576046     
   64.932871597587194          5.5650827732607553          -3.0709848375179569          219.73180505685917     
   66.322468827172713          5.5649070096290272          -3.0669969968965995          223.96827675669479     
   67.720403640135743          5.5647317349286629          -3.0632234537189325          228.22492358158402     
   69.126726061976555          5.5645569019658145          -3.0596540526491784          232.50212049740574     
   70.541486418348413          5.5643824656918008          -3.0562792065873112          236.80023447303535     
   71.964735336858510          5.5642083830803211          -3.0530898528060724          241.11962496122658     
   73.396523748879659          5.5640346130139395          -3.0500774131012007          245.46064434079491     
   74.836902891372944          5.5638611161790168          -3.0472337575616044          249.82363832359130     
   76.285924308721178          5.5636878549683439          -3.0445511716082936          254.20894632942935     
   77.743639854573502          5.5635147933907998          -3.0420223259850769          258.61690183183322     
   79.210101693700949          5.5633418969874180          -3.0396402494157870          263.04783267720507     
   80.685362303863158          5.5631691327533090          -3.0373983036677346          267.50206137976420     
   82.169474477686336          5.5629964690649238          -3.0352901607877811          271.97990539438734     
   83.662491324552448          5.5628238756122173          -3.0333097823059405          276.48167736928451     
   85.164466272499766          5.5626513233352837          -3.0314514002094994          281.00768538025318     
   86.675453070134765          5.5624787843650889          -3.0297094995217559          285.55823314809288     
   88.195505788555579          5.5623062319679724          -3.0280788023340439          290.13362024061803     
   89.724678823286908          5.5621336404935882          -3.0265542531473639          294.73414226056275     
   91.263026896226634          5.5619609853260359          -3.0251310054047993          299.36009102055743     
   92.810605057603993          5.5617882428378893          -3.0238044090966310          304.01175470623787     
   94.367468687949611          5.5616153903469270          -3.0225699993475326          308.68941802846251     
   95.933673500077305          5.5614424060753374          -3.0214234858842470          313.39336236550781     
   97.509275541077770          5.5612692691112136          -3.0203607433127480          318.12386589604580     
   99.094331194324241          5.5610959593721621          -3.0193778021228734          322.88120372362209     
   100.68889718149019          5.5609224575708769          -3.0184708403630678          327.66564799329916     
   102.29303056457913          5.5607487451825293          -3.0176361759213939          332.47746800106495     
   103.90678874796660          5.5605748044138350          -3.0168702593602252          337.31693029655287     
   105.53022948045439          5.5604006181737065          -3.0161696672591907          342.18429877957749     
   107.16341085733713          5.5602261700453441          -3.0155310960195227          347.07983479093917     
   108.80639132248115          5.5600514442597149          -3.0149513561008705          352.00379719793045     
   110.45922967041604          5.5598764256702715          -3.0144273666408652          356.95644247491691     
   112.12198504843853          5.5597010997288807          -3.0139561504390158          361.93802477935674     
   113.79471695872917          5.5595254524628555          -3.0135348292743491          366.94879602359077     
   115.47748526048154          5.5593494704530180          -3.0131606195249838          371.98900594270128     
   117.17035017204444          5.5591731408127565          -3.0128308280743505          377.05890215872716     
   118.87337227307670          5.5589964511679755          -3.0125428484806203          382.15873024149971     
   120.58661250671516          5.5588193896379252          -3.0122941573909432          387.28873376634687     
   122.31013218175545          5.5586419448168325          -3.0120823111847024          392.44915436889920     
   124.04399297484598          5.5584641057562907          -3.0119049428285911          397.64023179721539     
   125.78825693269505          5.5582858619483630          -3.0117597589317846          402.86220396143500     
   127.54298647429123          5.5581072033093735          -3.0116445369897309          408.11530698115928     
   129.30824439313696          5.5579281201643189          -3.0115571228022278          413.39977523074469     
   131.08409385949579          5.5577486032318903          -3.0114954280609951          418.71584138269714     
   132.87059842265276          5.5575686436100478          -3.0114574280916844          424.06373644933609     
   134.66782201318867          5.5573882327621398          -3.0114411597476884          429.44368982290405     
   136.47582894526781          5.5572073625035170          -3.0114447194450156          434.85592931428545     
   138.29468391893943          5.5570260249886108          -3.0114662613331737          440.30068119049827     
   140.12445202245306          5.5568442126984658          -3.0115039955951652          445.77817021111844     
   141.96519873458777          5.5566619184286807          -3.0115561868729817          451.28861966379776     
   143.81698992699529          5.5564791352777387          -3.0116211528140693          456.83225139903561     
   145.67989186655726          5.5562958566357095          -3.0116972627303955          462.40928586435763     
   147.55397121775661          5.5561120761732807          -3.0117829363734567          468.01994213806739     
   149.43929504506315          5.5559277878311146          -3.0118766428144843          473.66443796272563     
   151.33593081533354          5.5557429858094940          -3.0119768994350871          479.34298977852745     
   153.24394640022555          5.5555576645582363          -3.0120822710171162          485.05581275673575     
   155.16341007862690          5.5553718187668668          -3.0121913689403366          490.80312083335110     
   157.09439053909867          5.5551854433550041          -3.0123028504719120          496.58512674317677     
   159.03695688233327          5.5549985334629595          -3.0124154181627425          502.40204205447287     
   160.99117862362726          5.5548110844425187          -3.0125278193358453          508.25407720437261     
   162.95712569536903          5.5546230918478869          -3.0126388456746591          514.14144153525683     
   164.93486844954126          5.5544345514267670          -3.0127473329048335          520.06434333227890     
   166.92447766023849          5.5542454591115717          -3.0128521605749787          526.02298986224821     
   168.92602452619994          5.5540558110107154          -3.0129522519287404          532.01758741407662     
   170.93958067335714          5.5538656033999994          -3.0130465738777663          538.04834134101748     
   172.96521815739729          5.5536748327140453          -3.0131341370657458          544.11545610491544     
   175.00300946634167          5.5534834955377628          -3.0132139960326216          550.21913532271356     
   177.05302752313972          5.5532915885978280          -3.0132852494727511          556.35958181545948     
   179.11534568827855          5.5530991087541501          -3.0133470405913267          562.53699766007071     
   181.19003776240822          5.5529060529913075          -3.0133985575592805          568.75158424412837     
   183.27717798898269          5.5527124184099304          -3.0134390340688446          575.00354232398399     
   185.37684105691659          5.5525182022180015          -3.0134677499859235          581.29307208646446     
   187.48910210325809          5.5523234017220444          -3.0134840321040657          587.62037321448190     
   189.61403671587763          5.5521280143182130          -3.0134872550053080          593.98564495687617     
   191.75172093617289          5.5519320374832031          -3.0134768420173450          600.38908620280631     
   193.90223126178992          5.5517354687650009          -3.0134522662770937          606.83089556103982     
   196.06564464936065          5.5515383057734313          -3.0134130519015856          613.31127144450329     
   198.24203851725682          5.5513405461704846          -3.0133587752619015          619.83041216045865     
   200.43149074836035          5.5511421876603917          -3.0132890663675500          626.38851600669955     
   202.63407969285052          5.5509432279794195          -3.0132036103548328          632.98578137416018     
   204.84988417100763          5.5507436648853696          -3.0131021490861363          639.62240685635686     
   207.07898347603367          5.5505434961467452          -3.0129844828587191          646.29859136609309     
   209.32145737688987          5.5503427195315664          -3.0128504722220146          653.01453425987063     
   211.57738612115119          5.5501413327957998          -3.0127000399058765          659.77043547046799     
   213.84685043787809          5.5499393336713885          -3.0125331728602132          666.56649564816416     
   216.12993154050537          5.5497367198538310          -3.0123499244019620          673.40291631108937     
   218.42671112974841          5.5495334889893142          -3.0121504164753792          680.27990000521515     
   220.73727139652689          5.5493296386613373          -3.0119348420201417          687.19765047449698     
   223.06169502490604          5.5491251663768395          -3.0117034674506140          694.15637284170737     
   225.40006519505548          5.5489200695517606          -3.0114566352402941          701.15627380049909     
   227.75246558622581          5.5487143454960464          -3.0111947666159948          708.19756181926402     
   230.11898037974316          5.5485079913980426          -3.0109183643548096          715.28044735735421     
   232.49969426202162          5.5483010043082706          -3.0106280156874692          722.40514309425635     
   234.89469242759375          5.5480933811225501          -3.0103243953020939          729.57186417231355     
   237.30406058215931          5.5478851185644347          -3.0100082684471499          736.78082845360143     
   239.72788494565228          5.5476762131669517          -3.0096804941293231          744.03225679157379     
   242.16625225532619          5.5474666612536154          -3.0093420284093959          751.32637331811577     
   244.61924976885814          5.5472564589186719          -3.0089939277810749          758.66340574662445     
   247.08696526747130          5.5470456020065875          -3.0086373526432921          766.04358569177782     
   249.56948705907612          5.5468340860907164          -3.0082735708497199          773.46714900663198     
   252.06690398143058          5.5466219064511595          -3.0079039613366909          780.93433613770480     
   254.57930540531916          5.5464090580517800          -3.0075300178266624          788.44539249871411     
   257.10678123775108          5.5461955355163433          -3.0071533525938281          796.00056886362222     
   259.64942192517759          5.5459813331037973          -3.0067757002990616          803.60012177967167     
   262.20731845672867          5.5457664446826254          -3.0063989218731351          811.24431400106153     
   264.78056236746903          5.5455508637043112          -3.0060250084556479          818.93341494394599     
   267.36924574167386          5.5453345831758512          -3.0056560853755410          826.66770116341831     
   269.97346121612389          5.5451175956313383          -3.0052944161681805          834.44745685314342     
   272.59330198342064          5.5448998931025768          -3.0049424066201800          842.27297436829485     
   275.22886179532117          5.5446814670887514          -3.0046026088397819          850.14455477245951     
   277.88023496609310          5.5444623085250937          -3.0042777253382500          858.06250840914890     
   280.54751637588964          5.5442424077505983          -3.0039706131200843          866.02715549856282     
   283.23080147414498          5.5440217544747297          -3.0036842877696621          874.03882676022886     
   285.93018628298984          5.5438003377431526          -3.0034219275302130          882.09786406214403     
   288.64576740068776          5.5435781459024680          -3.0031868773600849          890.20462109701214     
   291.37764200509190          5.5433551665639609          -3.0029826529646164          898.35946408617735     
   294.12590785712246          5.5431313865663654          -3.0028129447911978          906.56277251182837     
   296.89066330426522          5.5429067919376518          -3.0026816219810484          914.81493987803856     
