 #              _____________________  _______________________             #
 #              ___  __ \__  __ \_  / / /_  /___  ____/_  ___/             #
 #              __  / / /_  /_/ /  / / /_  __/_  __/  _____ \              #
 #              _  /_/ /_  _, _// /_/ / / /_ _  /___  ____/ /              #
 #              /_____/ /_/ |_| \____/  \__/ /_____/  /____/               #
 #                                                                         #
  
 #        time                      T            heat flux [W.L-2]   in    x              directions   cumulative flux
 #-----------------------------------------------------------------------------------------------

   0.0000000000000000        5.2374000000000001        5.8623986253570273        5.8623986253570273     
   1.0000000000000000        5.2373994077438004        5.8625547560030125        11.724953381360040     
   1.9540000000000002        5.2373988734883437        5.8626915951094114        17.587644976469452     
   2.8641160000000001        5.2373983896265743        5.8628121477977837        23.450457124267235     
   3.8288389600000006        5.2373979033844149        5.8629298662519718        29.313386990519206     
   4.8514452976000007        5.2373974153668632        5.8630446511164944        35.176431641635702     
   5.9354080154560007        5.2373969261144548        5.8631565919602995        41.039588233596000     
   7.0844084963833609        5.2373964360827108        5.8632660385487352        46.902854272144737     
   8.3023490061663630        5.2373959456183172        5.8633736890378945        52.766227961182629     
   9.5933659465363448        5.2373954549310344        5.8634806971145759        58.629708658297204     
   10.961843903328527        5.2373949640600541        5.8635887997219083        64.493297458019114     
   12.412430537528239        5.2373944728331949        5.8637004663742207        70.356997924393340     
   13.950052369779934        5.2373939808170107        5.8638190701087440        76.220816994502087     
   15.579931511966731        5.2373934872555878        5.8639490788797257        82.084766073381815     
   17.307603402684734        5.2373929909955770        5.8640962645827646        87.948862337964584     
   19.138935606845820        5.2373924903948774        5.8642679249996643        93.813130262964251     
   21.080147743256571        5.2373919832124098        5.8644731117620390        99.677603374726289     
   23.137832607851966        5.2373914664765913        5.8647228550881048        105.54232622981439     
   25.318978564323086        5.2373909363304652        5.8650303736697316        111.40735660348412     
   27.630993278182473        5.2373903878519785        5.8654112558006162        117.27276785928473     
   30.081728874873424        5.2373898148484663        5.8658835959253111        123.13865145521004     
   32.679508607365833        5.2373892096249364        5.8664680693716278        129.00511952458166     
   35.433155123807786        5.2373885627260330        5.8671879273801126        134.87230745196177     
   38.352020431236255        5.2373878626512953        5.8680688947799844        140.74037634674175     
   41.446017657110431        5.2373870955420827        5.8691389539789354        146.60951530072069     
   44.725654716537058        5.2373862448360518        5.8704280012880821        152.47994330200876     
   48.202069999529286        5.2373852908806153        5.8719673650798487        158.35191066708862     
   51.887070199501046        5.2373842104901795        5.8737891796744970        164.22569984676312     
   55.793170411471110        5.2373829764226585        5.8759256140445340        170.10162546080767     
   59.933636636159378        5.2373815567386250        5.8784079602209705        175.98003342102865     
   63.444751994695032        5.2373802660870226        5.8806604075810212        181.86069382860967     
   67.166534274742830        5.2373787933608531        5.8832015916358742        187.74389542024554     
   70.888316554790620        5.2373772093101021        5.8858835263863822        193.62977894663192     
   74.833405771641281        5.2373753975605961        5.8888686393690879        199.51864758600101     
   79.015200341502975        5.2373733193154983        5.8921734763923066        205.41082106239332     
   83.447902585556378        5.2373709287800816        5.8958117766335114        211.30663283902683     
   87.880604829609780        5.2373683402539353        5.8995628643123439        217.20619570333918     
   92.313307073663182        5.2373655430954891        5.9034050674104304        223.10960077074961     
   96.746009317716585        5.2373625263055139        5.9073176296396408        229.01691840038924     
   101.44467369641319        5.2373590680834017        5.9115206238087126        234.92843902419796     
   106.14333807510980        5.2373553351954705        5.9157573841205400        240.84419640831851     
   111.12392231652819        5.2373510520002826        5.9202621313068811        246.76445853962539     
   116.10450655794659        5.2373464240316725        5.9247584737368824        252.68921701336228     
   121.08509079936499        5.2373414322043512        5.9292261882086050        258.61844320157087     
   126.06567504078339        5.2373360568883696        5.9336469729961987        264.55209017456707     
   131.34509433668688        5.2373299042600987        5.9382608152615282        270.49035098982858     
   136.62451363259038        5.2373232725849714        5.9427852369201251        276.43313622674873     
   142.22069808624809        5.2373156756744557        5.9474627747159579        282.38059900146470     
   148.15265360712527        5.2373069509486196        5.9522697984547328        288.33286879991942     
   154.44052645925510        5.2372969070737811        5.9571773169424329        294.29004611686184     
   161.10567168251271        5.2372853193940312        5.9621506962356534        300.25219681309750     
   167.77081690577032        5.2372727450441330        5.9668817201236610        306.21907853322114     
   174.83587084242336        5.2372582560581300        5.9716119986766527        312.19069053189781     
   182.32482801527561        5.2372415366716254        5.9762961714962684        318.16698670339406     
   190.26312261849898        5.2372222219003151        5.9808834933210244        324.14787019671508     
   198.67771489791576        5.2371998918194382        5.9853180436779736        330.13318824039305     
   207.59718271409756        5.2371740657593779        5.9895390830194186        336.12272732341245     
   216.51665053027935        5.2371460233954803        5.9932862392677562        342.11601356268022     
   225.43611834646114        5.2371157147339717        5.9965687140079726        348.11258227668822     
   234.35558616264294        5.2370830997078057        5.9993984614463187        354.11198073813455     
   243.27505397882473        5.2370481478283830        6.0017895510358574        360.11377028917042     
   252.19452179500652        5.2370108377318081        6.0037576282671594        366.11752791743760     
   261.11398961118829        5.2369711566490968        6.0053194617616068        372.12284737919919     
   270.03345742737008        5.2369290998253240        6.0064925656571209        378.12933994485633     
   278.95292524355187        5.2368846699085578        6.0072948872481149        384.13663483210445     
   288.40756112870457        5.2368349194540524        6.0077503205032912        390.14438515260775     
   297.86219701385727        5.2367825335991505        6.0078322454627218        396.15221739807049     
   307.31683289900997        5.2367275385485845        6.0075619021182165        402.15977930018869     
   316.77146878416266        5.2366699665833796        6.0069600833095800        408.16673938349828     
   326.22610466931536        5.2366098553121434        6.0060470065504621        414.17278639004877     
   336.24801870757722        5.2365433347779708        6.0047526434129663        420.17753903346176     
   346.87124758813479        5.2364697404028515        6.0030402353864467        426.18057926884819     
   358.13187020152583        5.2363883521311525        6.0008725624349788        432.18145183128320     
   369.39249281491686        5.2363036760553818        5.9983806574275054        438.17983248871070     
   380.65311542830790        5.2362158064997084        5.9955911505466952        444.17542363925742     
   391.91373804169893        5.2361248406596061        5.9925290285088222        450.16795266776626     
   403.17436065508997        5.2360308776989948        5.9892176696947033        456.15717033746097     
   415.11062062528447        5.2359280289362298        5.9854534681847955        462.14262380564577     
   427.76305619369060        5.2358155027495954        5.9812062968070894        468.12383010245287     
   441.17463789620115        5.2356924548010690        5.9764464677448403        474.10027657019771     
   455.39091450086232        5.2355579876951701        5.9711450280494587        480.07142159824718     
   470.46016770180313        5.2354111510923005        5.9652740547713528        486.03669565301851     
   485.52942090274394        5.2352602410652755        5.9591842762136267        491.99587992923216     
   500.59867410368474        5.2351054790518603        5.9529050598087512        497.94878498904092     
   513.37740081808261        5.2349716021730988        5.9474604008114476        503.89624538985237     
   526.92285113534433        5.2348268791593604        5.9415720078584142        509.83781739771081     
   540.46830145260606        5.2346794886512180        5.9355825420723001        515.77339993978308     
   554.82647878890350        5.2345204245738008        5.9291372630613193        521.70253720284438     
   570.04614676537869        5.2343488268855527        5.9222151074978964        527.62475231034227     
   586.17899482044243        5.2341637894236994        5.9147955282245723        533.53954783856682     
   603.27981375881006        5.2339643598571151        5.9068586291692284        539.44640646773610     
   621.40668183347975        5.2337495398646325        5.8983852850865324        545.34479175282263     
   633.00787740126827        5.2336107207626661        5.8929426553560456        551.23773440817865     
   645.30514470312414        5.2334621512973136        5.8871567205068729        557.12489112868548     
   657.60241200498001        5.2333122352209180        5.8813589050988764        563.00625003378434     
   670.63751534494725        5.2331518958159169        5.8752050814711554        568.88145511525545     
   684.45472488531254        5.2329804269196671        5.8686784164781614        574.75013353173358     
   699.10096699809969        5.2327970821492507        5.8617619192953008        580.61189545102889     
   714.62598363765414        5.2326010737971105        5.8544384931099964        586.46633394413891     
   731.08250127558188        5.2323915718059206        5.8466909822934339        592.31302492643238     
   748.52640997178526        5.2321677028185292        5.8385022119811936        598.15152713841360     
   767.01695318976078        5.2319285492929408        5.8298550165385583        603.98138215495214     
   786.61692900081482        5.2316731486655446        5.8207322529119887        609.80211440786411     
   806.21690481186886        5.2314160196917809        5.8116579005264075        615.61377230839048     
   826.99287917158620        5.2311417066406092        5.8020983616546848        621.41587067004514     
   840.28950276180524        5.2309654729516994        5.7960056249882044        627.21187629503333     
   854.38392376743752        5.2307779604241764        5.7895769071377776        633.00145320217109     
   868.47834477306981        5.2305897918708615        5.7831786567330017        638.78463185890405     
   883.41843103904000        5.2303896506868792        5.7764315766629704        644.56106343556701     
   899.25492248096839        5.2301767949991742        5.7693198140928104        650.33038324965980     
   916.04160340941246        5.2299504421984064        5.7618270577102741        656.09221030737012     
   933.83548519356316        5.2297097673613111        5.7539365162210556        661.84614682359120     
   952.69699988476293        5.2294539016363988        5.7456308857848137        667.59177770937606     
   972.69020545743467        5.2291819305777452        5.7368923033781316        673.32867001275417     
   993.88300336446673        5.2288928924057050        5.7277022825880932        679.05637229534227     
   1016.3473691459208        5.2285857761661703        5.7180416277433732        684.77441392308560     
   1040.1595968742620        5.2282595197507860        5.7078903216129993        690.48230424469864     
   1065.4005582663037        5.2279130077290752        5.6972273809991325        696.17953162569779     
   1092.1559773418680        5.2275450689284506        5.6860306734172150        701.86556229911503     
   1118.9113964174323        5.2271766078248980        5.6749361390749984        707.54049843819007     
   1145.6668154929966        5.2268077250666316        5.6639396589146163        713.20443809710468     
   1172.4222345685610        5.2264385094202019        5.6530368923647769        718.85747498946944     
   1199.1776536441253        5.2260690388569877        5.6422233266240411        724.49969831609349     
   1225.9330727196896        5.2256993815146036        5.6314943159106265        730.13119263200406     
   1252.6884917952539        5.2253295965453281        5.6208451122616188        735.75203774426564     
   1281.0492360153519        5.2249375411763550        5.6096408748418654        741.36167861910747     
   1300.2891648942664        5.2246715491790106        5.6020767289455229        746.96375534805304     
   1320.6834895059158        5.2243895907966156        5.5940979148064454        752.55785326285945     
   1341.0778141175651        5.2241076406867331        5.5861560891540254        758.14400935201343     
   1362.6957982059134        5.2238087981515191        5.5777766874160601        763.72178603942950     
   1385.6108613395627        5.2234920676269789        5.5689351209924824        769.29072116042198     
   1409.9008282612310        5.2231563950078392        5.5596049102533298        774.85032607067535     
   1435.6481931981994        5.2228006633388802        5.5497573961003326        780.40008346677564     
   1462.9404000313857        5.2224236878131460        5.5393613860319988        785.93944485280758     
   1491.8701392745634        5.2220242098778371        5.5283827183251546        791.46782757113272     
   1522.5356628723316        5.2216008901855533        5.5167837237849930        796.98461129491773     
   1555.0411178859661        5.2211523000462972        5.5045225593392573        802.48913385425703     
   1587.5465728996005        5.2207038154884264        5.4922856944261147        807.98141954868311     
   1620.0520279132350        5.2202554043683360        5.4800635468794257        813.46148309556258     
   1652.5574829268694        5.2198070257894162        5.4678464131148168        818.92932950867737     
   1687.0132652413220        5.2193317215594943        5.4548901634046478        824.38421967208205     
   1723.5363944946416        5.2188277891006507        5.4411355193893627        829.82535519147143     
   1762.2509115031603        5.2182933803169274        5.4265148065035360        835.25186999797495     
   1803.2882995321902        5.2177264773119507        5.4109502009159467        840.66282019889093     
   1846.7879308429619        5.2171248618321240        5.3943515825582447        846.05717178144914     
   1892.8975400323800        5.2164860767279810        5.3766139150237269        851.43378569647291     
   1941.7737257731631        5.2158073773159987        5.3576140628562579        856.79139975932912     
   1980.8746743657896        5.2152631908637126        5.3422682777291763        862.13366803705833     
   2022.3216798739736        5.2146847040144211        5.3258146453539155        867.45948268241227     
   2063.7686853821579        5.2141042786457241        5.3091505368893017        872.76863321930159     
   2105.2156908903421        5.2135216073554087        5.2922524137877609        878.06088563308936     
   2149.1495167290173        5.2129010641655089        5.2740492975532591        883.33493493064259     
   2195.7193721180129        5.2122395281607528        5.2543932974937322        888.58932822813631     
   2245.0834188303484        5.2115334613494175        5.2331126925013463        893.82244092063763     
   2294.4474655426839        5.2108219126607249        5.2113470880889272        899.03378800872656     
   2346.7733550577595        5.2100607110540818        5.1876837180958244        904.22147172682241     
   2399.0992445728352        5.2092917174745796        5.1633822916213763        909.38485401844378     
   2451.4251340879109        5.2085140717029557        5.1383974255107105        914.52325144395445     
   2506.8905769738908        5.2076789897833056        5.1110928052692639        919.63434424922366     
   2542.3884604209179        5.2071398414063470        5.0932681190963640        924.72761236832002     
   2580.0162168747665        5.2065627270813657        5.0739651547127718        929.80157752303285     
   2617.6439733286152        5.2059796503260323        5.0542379178583783        934.85581544089121     
   2657.5293951696949        5.2053544731549630        5.0328324025374345        939.88864784342866     
   2699.8079423212394        5.2046832888464838        5.0095660920648557        944.89821393549346     
   2744.6232023018765        5.2039616848669663        4.9842323610765078        949.88244629656992     
   2792.1273778813520        5.2031846604754541        4.9565971217400859        954.83904341830998     
   2842.4818039955962        5.2023465302523721        4.9263950670487375        959.76543848535869     
   2895.8574956766947        5.2014408114515671        4.8933254897099951        964.65876397506872     
   2952.4357288586593        5.2004600929021594        4.8570476628377133        969.51581163790638     
   2997.6983154042309        5.1996616778263931        4.8272235560739505        974.34303519398031     
   3045.6766571425369        5.1987990745494717        4.7946885450789383        979.13772373905920     
   3093.6549988808429        5.1979194633576107        4.7612130361582548        983.89893677521741     
   3144.5120411234470        5.1969671143986691        4.7246514320564703        988.62358820727388     
   3198.4205059006076        5.1959342006131859        4.6846629188801066        993.30825112615400     
   3255.5634785643979        5.1948118332312259        4.6408656322651884        997.94911675841922     
   3316.1350295880156        5.1935899045775074        4.5928321026920864        1002.5419488611113     
   3376.7065806116334        5.1923344535344826        4.5431690047252857        1007.0851178658367     
   3437.2781316352512        5.1910442212546881        4.4918586587443237        1011.5769765245810     
   3497.8496826588689        5.1897179962158591        4.4388867661316054        1016.0158632907127     
   3558.4212336824867        5.1883546168575343        4.3842422959393543        1020.4001055866520     
   3618.9927847061044        5.1869529738537921        4.3279173620568541        1024.7280229487089     
   3667.4500255249986        5.1858066248181487        4.2817791290550948        1029.0098020777641     
   3718.8147007930265        5.1845627442899023        4.2316592253692962        1033.2414613031333     
