 #              _____________________  _______________________             #
 #              ___  __ \__  __ \_  / / /_  /___  ____/_  ___/             #
 #              __  / / /_  /_/ /  / / /_  __/_  __/  _____ \              #
 #              _  /_/ /_  _, _// /_/ / / /_ _  /___  ____/ /              #
 #              /_____/ /_/ |_| \____/  \__/ /_____/  /____/               #
 #                                                                         #
  
 #        time                      T            heat flux [W.L-2]   in    x              directions   cumulative flux
 #-----------------------------------------------------------------------------------------------

   0.0000000000000000        20.000000000000000       -0.0000000000000000        0.0000000000000000     
   1.0000000000000000        20.000000000000000       -6.7785776991513509E-012   6.7785776991513509E-012
   1.9540000000000002        20.000000000000000       -5.1969095693493766E-011   5.8747673392645122E-011
   2.8641160000000001        19.999999999999979       -2.2595258997171315E-010   2.8470026336435829E-010
   3.8288389600000006        19.999999999999890       -9.3318419658319459E-010   1.2178844599475530E-009
   4.8514452976000007        19.999999999999542       -3.4909675150632977E-009   4.7088519750108507E-009
   5.9354080154560007        19.999999999998302       -1.1855732395819766E-008   1.6564584370830617E-008
   7.0844084963833609        19.999999999994198       -3.6947767512213551E-008   5.3512351883044168E-008
   8.3023490061663630        19.999999999981672       -1.0687331553104741E-007   1.6038566741409157E-007
   9.5933659465363448        19.999999999945850       -2.8972770849362675E-007   4.5011337590771832E-007
   10.961843903328527        19.999999999849081       -7.4215370917022532E-007   1.1922670850779437E-006
   12.412430537528239        19.999999999600451       -1.8084341491904084E-006   3.0007012342683518E-006
   13.950052369779934        19.999999998989573       -4.2153116415781935E-006   7.2160128758465453E-006
   15.579931511966731        19.999999997547718       -9.4420853667512253E-006   1.6658098242597771E-005
   17.307603402684734        19.999999994266062       -2.0401979019207195E-005   3.7060077261804967E-005
   19.138935606845820        19.999999987040859       -4.2660363079541565E-005   7.9720440341346532E-005
   21.080147743256571        19.999999971611633       -8.6553609458242441E-005   1.6627404979958899E-004
   23.137832607851966        19.999999939582391       -1.7077892360501586E-004   3.3705297340460487E-004
   25.318978564323086        19.999999874826468       -3.2832464477540501E-004   6.6537761818000988E-004
   27.630993278182473        19.999999747111403       -6.1603000588260804E-004   1.2814076240626180E-003
   30.081728874873424        19.999999501056827       -1.1296307682075596E-003   2.4110383922701776E-003
   32.679508607365833        19.999999037440539       -2.0268861181139517E-003   4.4379245103841293E-003
   35.433155123807786        19.999998182249094       -3.5623031530072841E-003   8.0002276633914134E-003
   38.352020431236255        19.999996636551618       -6.1380659269366792E-003   1.4138293590328092E-002
   41.446017657110431        19.999993897057919       -1.0376986771835850E-002   2.4515280362163942E-002
   44.725654716537058        19.999989132900854       -1.7224528556455922E-002   4.1739808918619864E-002
   48.202069999529286        19.999980998584512       -2.8088033391279042E-002   6.9827842309898913E-002
   51.887070199501046        19.999967356072297       -4.5022001261863925E-002  0.11484984357176284     
   55.793170411471110        19.999944870708255       -7.0968288479529990E-002  0.18581813205129283     
   59.933636636159378        19.999908436356677      -0.11005908931289038       0.29587722136418321     
   64.322530834328944        19.999850375404986      -0.16798816396113514       0.46386538532531835     
   68.974758684388689        19.999759350080978      -0.25245167133466351       0.71631705665998191     
   73.906120205452012        19.999618914276866      -0.37365397355784430        1.0899710302178263     
   79.133363417779137        19.999405631524873      -0.54486593301168251        1.6348369632295088     
   84.674241222845893        19.999086686976625      -0.78301384809585484        2.4178508113253638     
   90.547571696216650        19.998616931302610       -1.1092669426568167        3.5271177539821803     
   96.773301997989648        19.997935314193921       -1.5495812573779135        5.0766990113600938     
   103.37257611786903        19.996960695822473       -2.1351491968888623        7.2118482082489557     
   110.36780668494117        19.995587066360791       -2.9026983230114811        10.114546531260437     
   117.78275108603765        19.993678255246756       -3.8945816644577778        14.009128195718215     
   125.64259215119992        19.991062270466720       -5.1586059606998464        19.167734156418064     
   133.97402368027193        19.987525469290983       -6.7475544660941846        25.915288622512250     
   142.80534110108826        19.982806819885528       -8.7183770887187322        34.633665711230982     
   152.16653756715357        19.976592561537981       -11.131041801921603        45.764707513152587     
   162.08940582118279        19.968511603387800       -14.047065753159364        59.811773266311953     
   172.60764617045376        19.958132011969305       -17.527770013543901        77.339543279855860     
   183.75698094068099        19.944958922776443       -21.632325855784050        98.971869135639906     
   195.57527579712186        19.928434169134629       -26.415680246634700        125.38754938227461     
   208.10266834494917        19.907937854462411       -31.926461716614519        157.31401109888913     
   221.38170444564611        19.882792005890551       -38.204973449609007        195.51898454849814     
   235.45748271238489        19.852266344916430       -45.281377738716401        240.80036228721454     
   250.37780767512800        19.815586102618497       -53.174165255483409        293.97452754269796     
   266.19335213563568        19.771941701797811       -61.888985112746767        355.86351265544471     
   282.95782926377382        19.720500034585690       -71.417889355544617        427.28140201098932     
   300.72817501960026        19.660416988414294       -81.739020544952510        509.02042255594182     
   319.56474152077629        19.590850820483798       -92.816745818016983        601.83716837395878     
   335.53814991377357        19.527870169794255       -102.25033341933594        704.08750179329468     
   352.46996281035069        19.456925755526029       -112.23433372465124        816.32183551794594     
   369.40177570692782        19.382098111393834       -122.15130882331376        938.47314434125974     
   386.33358860350495        19.303689289858418       -131.95753816412940        1070.4306825053891     
   403.26540150008208        19.221998069444414       -141.61591793134093        1212.0466004367299     
   420.19721439665921        19.137317166514908       -151.09522867547275        1363.1418291122027     
   437.12902729323633        19.049930821420322       -160.36970834235771        1523.5115374545603     
   454.06084018981346        18.960112621679606       -169.41875480474891        1692.9302922593092     
   470.99265308639059        18.868123716023959       -178.22651826890720        1871.1568105282165     
   487.92446598296772        18.774211618621834       -186.78131708785276        2057.9381276160693     
   504.85627887954485        18.678609677306255       -195.07493019300779        2253.0130578090771     
   521.78809177612197        18.581537192253407       -203.10183211588787        2456.1148899249647     
   538.71990467269904        18.483199970366794       -210.85853849943013        2666.9734284243950     
   555.65171756927612        18.383791051597271       -218.34315065757892        2885.3165790819739     
   572.58353046585319        18.283491427387894       -225.55506597257983        3110.8716450545539     
   589.51534336243026        18.182470690491581       -232.49478616163333        3343.3664312161873     
   606.44715625900733        18.080887616901784       -239.16377025029738        3582.5302014664849     
   623.37896915558440        17.978890700118001       -245.56430713258740        3828.0945085990725     
   640.31078205216147        17.876618653785023       -251.69940090897606        4079.7939095080487     
   657.24259494873854        17.774200891132967       -257.57266814276369        4337.3665776508124     
   674.17440784531561        17.671757988077538       -263.18824407800821        4600.5548217288206     
   691.10622074189268        17.569402605660777       -268.55031436566622        4869.1051360944866     
   706.34485234881208        17.477431352163453       -273.17356133266861        5142.2786974271548     
   720.05962079503956        17.394831666697385       -277.17225453688815        5419.4509519640433     
   732.40291239664430        17.320671111773457       -280.64101436949585        5700.0919663335389     
   744.74620399824903        17.246726031000346       -283.98115099331085        5984.0731173268496     
   757.08949559985376        17.173031108597709       -287.19421894703464        6271.2673362738842     
   769.43278720145850        17.099619247698897       -290.28209213781025        6561.5494284116949     
   782.51667629915949        17.022157092215281       -293.41732125408487        6854.9667496657794     
   795.60056539686047        16.945083144793035       -296.41770582435498        7151.3844554901343     
   808.68445449456146        16.868428456640324       -299.28651432978791        7450.6709698199220     
   821.76834359226245        16.792221605204347       -302.02703296527704        7752.6980027851987     
   834.85223268996344        16.716488884031339       -304.64253616025383        8057.3405389454529     
   847.93612178766443        16.641254364779790       -307.13637816776492        8364.4769171132175     
   861.02001088536542        16.566539865230915       -309.51208150825522        8673.9889986214730     
   874.10389998306641        16.492364906192293       -311.77336000926687        8985.7623586307400     
   887.18778908076740        16.418746720472942       -313.92407809602645        9299.6864367267663     
   900.27167817846839        16.345700335538272       -315.96817543016374        9615.6546121569299     
   912.04717836639929        16.280431348255156       -317.72434435976521        9933.3789565166953     
   923.82267855433020        16.215643502288682       -319.39980892520612        10252.778765441901     
   935.59817874226110        16.151344115176663       -320.99724455150334        10573.776009993404     
   947.37367893019200        16.087539597457447       -322.51918033860335        10896.295190332008     
   959.14917911812290        16.024235591575657       -323.96799558037753        11220.263185912385     
   970.92467930605380        15.961437074702234       -325.34594056021524        11545.609126472600     
   982.70017949398471        15.899148403134451       -326.65518186982632        11872.264308342426     
   995.18220969319145        15.833699715239197       -327.96833600227217        12200.232644344698     
   1007.6642398923982        15.768831770490266       -329.20956460885537        12529.442208953553     
   1014.0550393543921        15.735771910942020       -329.82661722710924        12859.268826180662     
   1015.4757020089639        15.728430334306800       -329.96286070439965        13189.231686885061     
   1016.9816044228101        15.720656746763366       -330.10626287577998        13519.337949760840     
   1018.5778609814870        15.712426281536157       -330.25713380369677        13849.595083564536     
   1020.2698929336846        15.703712710651383       -330.41578869976183        14180.010872264298     
   1022.0634468030140        15.694488379459065       -330.58254683303869        14510.593419097337     
   1023.9646139045032        15.684724139141238       -330.75773029031086        14841.351149387647     
   1025.9798510320816        15.674389277342531       -330.94166255874990        15172.292811946396     
   1028.1160023873149        15.663451447050083       -331.13466692176257        15503.427478868158     
   1030.3803228238621        15.651876593878626       -331.33706465759087        15834.764543525749     
   1032.7805024866022        15.639628881948800       -331.54917302630281        16166.313716552051     
   1035.3246929291067        15.626670618584448       -331.77130302285008        16498.085019574901     
   1038.0215347981614        15.612962178314291       -332.00375679786856        16830.088776372770     
   1040.7183766672160        15.599281055713021       -332.23324202688690        17162.322018399656     
   1043.4152185362707        15.585627246249338       -332.45979452504741        17494.781812924703     
   1046.1120604053253        15.572000741992843       -332.68345004042135        17827.465262965125     
   1048.8089022743800        15.558401531765098       -332.90424400082708        18160.369506965952     
   1051.5057441434346        15.544829601344036       -333.12221125383604        18493.491718219786     
   1053.6632176386784        15.533989507588240       -333.29479289222002        18826.786511112005     
   1055.8206911339221        15.523166854895740       -333.46560008062124        19160.252111192625     
   1057.9781646291658        15.512361632782490       -333.63464943405654        19493.886760626683     
   1060.1356381244095        15.501573829914243       -333.80195699518578        19827.688717621870     
   1062.2931116196532        15.490803434231935       -333.96753816386189        20161.656255785732     
   1064.4505851148970        15.480050433082681       -334.13140763752773        20495.787663423260     
   1066.6080586101407        15.469314813353945       -334.29357936561735        20830.081242788878     
   1068.7655321053844        15.458596561607733       -334.45406651987327        21164.535309308751     
   1070.9230056006281        15.447895664106376       -334.61288148797689        21499.148190796728     
   1073.2099275055866        15.436572195791982       -334.77936035514341        21833.927551151872     
   1075.6340647248426        15.424591191202996       -334.95374760973806        22168.881298761611     
   1078.2036501772538        15.411915878875957       -335.13627726792890        22504.017576029539     
   1080.9274107568099        15.398507608780157       -335.32716923242140        22839.344745261958     
   1083.8145969711393        15.384325779851757       -335.52662514695180        23174.871370408910     
   1086.8750143583284        15.369327768165796       -335.73482375100997        23510.606194159918     
   1090.1190567887488        15.353468856348394       -335.95191576941562        23846.558109929334     
   1093.5577417649945        15.336702164884581       -336.17801840823148        24182.736128337565     
   1097.2027478398149        15.318978586012575       -336.41320956957668        24519.149337907140     
   1101.0664542791246        15.300246720906776       -336.65752193925834        24855.806859846398     
   1105.1619831047929        15.280452820834615       -336.91093713718612        25192.717796983583     
   1109.5032436600011        15.259540732924197       -337.17338014430811        25529.891177127891     
   1114.1049798485219        15.237451851665035       -337.44471461440429        25867.335891742296     
   1118.7067160370427        15.215440795152254       -337.70928622691662        26205.045177969212     
   1123.3084522255635        15.193507445908812       -337.96719558564246        26543.012373554855     
   1127.9101884140844        15.171651672733248       -338.21855075260282        26881.230924307456     
   1132.5119246026052        15.149873328482975       -338.46346661400770        27219.694390921464     
   1137.1136607911260        15.128172248368330       -338.70206401995705        27558.396454941420     
   1141.7153969796468        15.106548248758227       -338.93446878070813        27897.330923722129     
   1146.3171331681676        15.085001126474323       -339.16081058954660        28236.491734311676     
   1150.9188693566884        15.063530658533731       -339.38122192893042        28575.872956240608     
   1155.5206055452093        15.042136602289581       -339.59583700441249        28915.468793245022     
   1160.1223417337301        15.020818695912734       -339.80479073941927        29255.273583984439     
   1164.7240779222509        14.999576659156006       -340.00821785384858        29595.281801838286     
   1169.3258141107717        14.978410194343446       -340.20625204075037        29935.488053879035     
   1173.9275502992925        14.957318987530506       -340.39902524824396        30275.887079127278     
   1178.5292864878134        14.936302709785739       -340.58666706824971        30616.473746195526     
   1183.1310226763342        14.915361018550318       -340.76930422939137        30957.243050424917     
   1187.7327588648550        14.894493559037604       -340.94706018846017        31298.190110613377     
   1192.3344950533758        14.873699966028937       -341.12005396278875        31639.310164576167     
   1197.2123354132077        14.851741306177139       -341.29821645221381        31980.608381028382     
   1202.0901757730396        14.829864738525291       -341.47129884974584        32322.079679878127     
   1207.2606865544615        14.806767259764605       -341.64921239316271        32663.728892271291     
   1212.4311973358833        14.783760902058075       -341.82171477701775        33005.550607048310     
   1217.9119387641906        14.759475866518539       -341.99865505071881        33347.549262099026     
   1223.3926801924979        14.735291852916186       -342.16983652746870        33689.719098626498     
   1229.2022661065037        14.709769488252938       -342.34499661139631        34032.064095237896     
   1235.3604271753497        14.682841424600923       -342.52379468116692        34374.587889919065     
   1241.8880779083265        14.654437690128507       -342.70582168164640        34717.293711600709     
   1248.8073876852818        14.624485676662758       -342.89059200249045        35060.184303603201     
   1256.1418560488546        14.592910140392362       -343.07753450223964        35403.261838105442     
   1263.9163925142416        14.559633217743073       -343.26598265304847        35746.527820758492     
   1272.1574011675518        14.524574458616753       -343.45516383108793        36089.982984589580     
   1280.8928703400607        14.487650866186605       -343.64419585943443        36433.627180449017     
   1289.6283395125695        14.450963402297504       -343.82206836817659        36777.449248817196     
   1298.3638086850783        14.414509547698550       -343.98910660301277        37121.438355420207     
   1307.0992778575871        14.378286833410341       -344.14561811555518        37465.583973535759     
   1314.9612001128451        14.345871845747206       -344.27816616655832        37809.862139702316     
   1322.0369301425771        14.316847305363522       -344.39087907811341        38154.253018780430     
   1328.4050871693362        14.290844952349477       -344.48710044334990        38498.740119223781     
   1334.1364284934193        14.267539157605112       -344.56955141442876        38843.309670638213     
   1339.2946356850941        14.246641484937905       -344.64045655613944        39187.950127194352     
   1343.9370221576014        14.227896040912267       -344.70164217376225        39532.651769368116     
