 #              _____________________  _______________________             #
 #              ___  __ \__  __ \_  / / /_  /___  ____/_  ___/             #
 #              __  / / /_  /_/ /  / / /_  __/_  __/  _____ \              #
 #              _  /_/ /_  _, _// /_/ / / /_ _  /___  ____/ /              #
 #              /_____/ /_/ |_| \____/  \__/ /_____/  /____/               #
 #                                                                         #
  
 #        time                      T            heat flux [W.L-2]   in    x              directions   cumulative flux
 #-----------------------------------------------------------------------------------------------

   0.0000000000000000        20.000000000000000       -0.0000000000000000        0.0000000000000000     
   1.0000000000000000        19.140981250572679       -265.83015293321188        265.83015293321188     
   1.9540000000000002        18.390460946572233       -492.20335975744052        758.03351269065240     
   2.8641160000000001        17.731198244879494       -685.56419232312055        1443.5977050137731     
   3.8288389600000006        17.087768263057349       -868.22569623259119        2311.8234012463645     
   4.8514452976000007        16.461576951959604       -1039.4440535812273        3351.2674548275918     
   5.9354080154560007        15.853774381473730       -1198.6540366903405        4549.9214915179327     
   7.0844084963833609        15.265239746906722       -1345.4696392664714        5895.3911307844046     
   8.3023490061663630        14.696573546395220       -1479.6810276742870        7375.0721584586918     
   9.5933659465363448        14.148097270852798       -1601.2479089710412        8976.3200674297332     
   10.961843903328527        13.619860631622462       -1710.2894954819774        10686.609562911710     
   12.412430537528239        13.111656021675019       -1807.0713416803030        12493.680904592013     
   13.950052369779934        12.623039583441672       -1891.9894340928843        14385.670338684897     
   15.579931511966731        12.153357960342667       -1965.5520218665529        16351.222360551450     
   17.307603402684734        11.701779559024754       -2028.3597751004693        18379.582135651919     
   19.138935606845820        11.267328962104814       -2081.0849394701122        20460.667075122030     
   21.080147743256571        10.848923019907271       -2124.4502086624907        22585.117283784522     
   23.137832607851966        10.445407122380704       -2159.2080520807876        24744.325335865309     
   25.318978564323086        10.055590211337652       -2186.1212086472324        26930.446544512542     
   27.630993278182473        9.6782772343088190       -2205.9449869581026        29136.391531470646     
   30.081728874873424        9.3122979542587103       -2219.4119007791087        31355.803432249755     
   32.679508607365833        8.9565312980671248       -2227.2190246731448        33583.022456922903     
   35.433155123807786        8.6099247303742779       -2230.0182889353628        35813.040745858263     
   38.352020431236255        8.2715084546136826       -2228.4097599338997        38041.450505792163     
   41.446017657110431        7.9404045456199093       -2222.9377861721641        40264.388291964329     
   44.725654716537058        7.6158313855735100       -2214.0897456630141        42478.478037627341     
   48.202069999529286        7.2971039886771072       -2202.2970176657554        44680.775055293096     
   51.887070199501046        6.9836309471771365       -2187.9377287157963        46868.712784008894     
   55.793170411471110        6.6749088066149636       -2171.3407918109410        49040.053575819838     
   59.933636636159378        6.3705146834437887       -2152.7907666028045        51192.844342422643     
   64.322530834328944        6.0700978821628997       -2132.5331114250116        53325.377453847657     
   68.974758684388689        5.7733711659973919       -2110.7794659883780        55436.156919836038     
   73.906120205452012        5.4801022021318753       -2087.7126861069669        57523.869605943008     
   79.133363417779137        5.1901055575141744       -2063.4914384193571        59587.361044362362     
   84.674241222845893        4.9032354805443799       -2038.2542446145037        61625.615288976864     
   90.547571696216650        4.6193795803244733       -2012.1229343498485        63637.738223326713     
   96.773301997989648        4.3384534167567068       -1985.4153929123356        65623.153616239055     
   103.37257611786903        4.0603959450358413       -1958.1147889700628        67581.268405209121     
   110.36780668494117        3.7851657161175272       -1930.1403761756123        69511.408781384729     
   117.78275108603765        3.5127660343235489       -1901.5694512564978        71412.978232641224     
   125.64259215119992        3.2431888551804580       -1872.4824424567523        73285.460675097973     
   133.97402368027193        2.9764063033346888       -1842.9669487267481        75128.427623824726     
   142.80534110108826        2.7124159897813165       -1813.0971754754478        76941.524799300169     
   152.16653756715357        2.4512317952363150       -1782.9380694855183        78724.462868785689     
   162.08940582118279        2.1928782579451074       -1752.5478091932039        80477.010677978891     
   172.60764617045376        1.9373870373274991       -1721.9793557801322        82198.990033759022     
   183.75698094068099        1.6847946264456573       -1691.2814434424349        83890.271477201459     
   195.57527579712186        1.4351408004088571       -1660.4992397082842        85550.770716909741     
   208.10266834494917        1.1884674959557706       -1629.6748105985328        87180.445527508273     
   221.38170444564611       0.94481794773870642       -1598.8474665638396        88779.292994072108     
   235.45748271238489       0.70423598421682954       -1568.0540311377529        90347.347025209863     
   250.37780767512800       0.46676542991643855       -1537.3290556790303        91884.676080888894     
   266.19335213563568       0.23244958472577304       -1506.7049939175092        93391.381074806399     
   282.95782926377382        1.3307636053556671E-003  -1476.2123451445357        94867.593419950936     
   300.72817501960026      -0.22655011317692875       -1944.0207349045138        96811.614154855444     
   319.56474152077629      -0.45115388554060143       -2199.1929598486740        99010.807114704119     
   335.53814991377357      -0.61921651094258201       -1461.3983150085355        100472.20542971266     
   352.46996281035069      -0.59653414483479816       -1407.8217563535975        101880.02718606626     
   369.40177570692782      -0.59568794320006135       -1381.1366109590047        103261.16379702526     
   386.33358860350495      -0.59676254052813316       -1370.4247739233385        104631.58857094860     
   403.26540150008208      -0.59340742010965219       -1373.6610947215991        106005.24966567020     
   420.19721439665921      -0.58183941529900363       -1387.2610276355081        107392.51069330571     
   437.12902729323633      -0.56618034422185359       -1414.8131691296048        108807.32386243531     
   454.06084018981346      -0.54806023848583152       -1446.8407919630499        110254.16465439837     
   470.99265308639059      -0.53103644367140745       -1467.5646716729498        111721.72932607132     
   487.92446598296772      -0.51590775246848208       -1464.8080189701000        113186.53734504142     
   504.85627887954485      -0.50449180718528852       -1439.8662362637035        114626.40358130512     
   521.78809177612197      -0.49703533190166854       -1405.7325733039402        116032.13615460906     
   538.71990467269904      -0.49287704966987178       -1372.8765115240599        117405.01266613312     
   555.65171756927612      -0.49123441706649101       -1344.5677348544855        118749.58040098760     
   572.58353046585319      -0.49158669879747230       -1319.8006552501513        120069.38105623775     
   589.51534336243026      -0.49373727349686519       -1297.1033394486508        121366.48439568639     
   606.44715625900733      -0.49777486436509577       -1276.9905583952579        122643.47495408166     
   623.37896915558440      -0.50409124645120229       -1263.2887390218154        123906.76369310346     
   640.31078205216147      -0.51430910983577682       -1253.3555965626463        125160.11928966611     
   657.24259494873854      -0.55355007770472908       -1001.8526469784409        126161.97193664455     
   672.48122655565794      -0.65844999549615457       -924.21580959721643        127086.18774624176     
   683.45304131263993      -0.79916366532189020       -979.09421428104338        128065.28196052280     
   694.42485606962191      -0.84913404488180022       -934.28233174967568        128999.56429227248     
   706.05497971202283      -0.91075368072744045       -920.70392412120111        129920.26821639368     
   718.38291077296776      -0.99009641172396357       -928.96330388290926        130849.23152027659     
   731.45051769756935       -1.1011099894005416       -955.32495208370710        131804.55647236030     
   745.30218103764707       -1.2774832981409847       -1002.4759595278852        132807.03243188819     
   759.98494417812947       -1.3386876004519097       -1096.7888552005436        133903.82128708874     
   774.66770731861186       -1.3696753499696896       -1216.1021917423973        135119.92347883113     
   789.35047045909425       -1.3816893001921431       -1376.6032499088899        136496.52672874002     
   804.03323359957665       -1.3827750122479980       -1584.1157586795364        138080.64248741957     
   818.71599674005904       -1.3755988049646541       -1851.7452964884458        139932.38778390802     
   833.39875988054143       -1.3633140670247328       -2159.3375338958203        142091.72531780385     
   848.08152302102383       -1.3473812175778062       -2452.6864616160424        144544.41177941990     
   862.76428616150622       -1.3283636227808266       -2647.8645490041044        147192.27632842399     
   877.44704930198861       -1.3060857381190520       -2662.2045067555891        149854.48083517959     
   892.12981244247101       -1.2754552173705265       -2530.9537221856776        152385.43455736528     
   905.34429926890516       -1.2496070125889773       -2423.0075884487997        154808.44214581407     
   918.55878609533931       -1.2288254783555157       -2332.6127336113341        157141.05487942541     
   930.45182423913002       -1.2352926027371658       -2305.6838263249083        159446.73870575032     
   941.15555856854166       -1.2554676581500410       -2304.7315385455136        161751.47024429584     
   951.85929289795331       -1.2871248879283079       -2312.2701789105126        164063.74042320636     
   962.56302722736496       -1.3322061658560418       -2319.0183527370964        166382.75877594345     
   973.26676155677660       -1.3380116000099571       -2301.0106646099962        168683.76944055344     
   983.97049588618825       -1.3465635201097723       -2287.9963573037239        170971.76579785717     
   994.67423021559989       -1.3582816954639529       -2280.1642280238971        173251.93002588107     
   1005.3779645450115       -1.3734117336475420       -2277.2191011104869        175529.14912699154     
   1016.0816988744232       -1.3923274041202711       -2278.9028964976205        177808.05202348917     
   1026.7854332038348       -1.4156000761493044       -2285.0186436590720        180093.07066714825     
   1037.4891675332465       -1.4441239146572094       -2295.4778755693715        182388.54854271762     
   1048.1929018626581       -1.4793393556290837       -2310.3848095860999        184698.93335230372     
   1058.8966361920698       -1.5153025138970262       -2323.5003106580148        187022.43366296173     
   1070.2425945812461       -1.5553324335827996       -2333.1651968988226        189355.59885986056     
   1082.2693104737730       -1.5983484807587662       -2335.8581273092741        191691.45698716983     
   1094.2960263662999       -1.6373403255623293       -2326.9871355929376        194018.44412276277     
   1106.3227422588268       -1.6678706609275415       -2302.8688048018648        196321.31292756464     
   1118.3494581513537       -1.6894805426752579       -2266.7227497478470        198588.03567731249     
   1130.3761740438806       -1.7045374869457897       -2224.4355561961106        200812.47123350861     
   1142.4028899364075       -1.7164518718133319       -2182.2282397810482        202994.69947328966     
   1155.1512087824860       -1.7349434095676834       -2149.4696433839258        205144.16911667358     
   1168.6644267593292       -1.7792495532716155       -2138.3907983224826        207282.55991499606     
   1182.1776447361724       -1.8305954371400235       -2137.0144334243992        209419.57434842046     
   1195.6908627130156       -1.8527714304429481       -2124.2184584004408        211543.79280682089     
   1209.2040806898588       -1.8781121336001552       -2116.7020192206223        213660.49482604151     
   1223.5280917453126       -1.9070154193517608       -2112.1355596625867        215772.63038570411     
   1238.7115434640937       -1.9380615583612195       -2108.0534293591118        217880.68381506321     
   1254.8060022860016       -1.9694594109262940       -2101.7589328580070        219982.44274792122     
   1271.8661286372239       -1.9995564648755049       -2090.6705902964118        222073.11333821763     
   1289.9498625695198       -2.0277820748786599       -2073.0041648829670        224146.11750310060     
   1309.1186205377535       -2.0618257819652976       -2045.2606174673115        226191.37812056791     
   1328.2873785059871       -2.1222439292377082       -2001.3274431568570        228192.70556372477     
   1347.4561364742208       -2.1781078797816700       -2003.3911484073697        230196.09671213213     
   1366.6248944424544       -2.2326570853176571       -1990.1966582417374        232186.29337037387     
   1386.9437778887821       -2.3024970794627344       -1970.7831827491593        234157.07655312301     
   1408.4817943418893       -2.3984891505466677       -1941.0642445100627        236098.14079763307     
   1423.0931847036773       -2.4805095959262582       -1902.8645124719808        238001.00531010504     
   1438.5812584871726       -2.5421490226227674       -1904.6704553043824        239905.67576540943     
   1454.0693322706679       -2.5828412172596087       -1893.6599787484747        241799.33574415790     
   1469.5574060541633       -2.6075601366304699       -1878.7284553113764        243678.06419946929     
   1485.0454798376586       -2.6200207820942660       -1859.8694036825536        245537.93360315185     
   1500.5335536211539       -2.6241956916260798       -1837.0577159939971        247374.99131914583     
   1516.0216274046493       -2.6235206216715117       -1811.0368480600769        249186.02816720592     
   1531.5097011881446       -2.6205680958876130       -1784.8385849423539        250970.86675214829     
   1547.9270593986496       -2.6163130220287942       -1753.3582356562683        252724.22498780454     
   1565.3294591017848       -2.6132433489419475       -1719.2713529542334        254443.49634075878     
   1583.7760027871082       -2.6133238083600565       -1684.0433927527358        256127.53973351151     
   1603.3293390935510       -2.6649884846521052       -1639.5477920736662        257767.08752558517     
   1622.8826753999938       -2.7630736907491533       -1602.7903785776823        259369.87790416286     
   1642.4360117064366       -2.8135963376369220       -1610.7396781506943        260980.61758231354     
   1661.9893480128794       -2.8617326721752536       -1599.5089790142190        262580.12656132778     
   1681.5426843193222       -2.9165060230095863       -1584.8720665199808        264164.99862784776     
   1702.2692208041515       -2.9889562852253113       -1570.3999229476531        265735.39855079539     
   1724.2393494780706       -3.0848885460972628       -1551.9245129200472        267287.32306371542     
   1747.5276858724249       -3.2155858938840378       -1525.3888849883263        268812.71194870374     
   1772.2133224504403       -3.2780625085127566       -1520.9335591978183        270333.64550790156     
   1796.8989590284557       -3.2949656352950587       -1509.4536281899009        271843.09913609148     
   1821.5845956064711       -3.2935317599654672       -1495.4195207105288        273338.51865680201     
   1846.2702321844865       -3.2962580943435347       -1475.3734817242478        274813.89213852625     
   1872.4370069571830       -3.3810376778201054       -1433.0306696421048        276246.92280816834     
   1893.3704267753401       -3.4793038341475828       -1399.8268141756619        277646.74962234398     
   1914.3038465934972       -3.5169607159551015       -1403.4754599472058        279050.22508229117     
   1935.2372664116542       -3.5557750029951123       -1386.0982048030965        280436.32328709424     
   1957.4266914189009       -3.6048434683112731       -1371.4114905394160        281807.73477763368     
   1980.9474819265822       -3.6582673918709521       -1359.8917989588649        283167.62657659256     
   2004.4682724342636       -3.7067417482208787       -1349.1457674424610        284516.77234403504     
   2027.9890629419449       -3.7483339642140181       -1340.6623344076061        285857.43467844266     
   2051.5098534496265       -3.7830926407799801       -1333.5943863222212        287191.02906476491     
   2076.4418913877689       -3.8127274501663253       -1328.5086501066346        288519.53771487152     
   2102.8698516021996       -3.8554752659256843       -1318.1674307035446        289837.70514557505     
   2119.7837461394352       -3.8880796696885334       -1305.9937347130851        291143.69888028811     
   2137.7124743489048       -3.9240994338864463       -1298.0628174364883        292441.76169772458     
   2156.7169262509428       -3.9595970846138471       -1291.5790274753952        293733.34072519996     
   2176.8616452671031       -3.9981792946762513       -1283.4472766941581        295016.78800189414     
   2198.2150474242330       -4.0429571477646178       -1273.4611658301267        296290.24916772428     
   2220.8496537107908       -4.0838814852996004       -1266.3030162590558        297556.55218398332     
   2243.4842599973485       -4.1167978935137537       -1260.5908836227650        298817.14306760608     
   2266.1188662839063       -4.1406727428077268       -1256.9904045459357        300074.13347215200     
   2288.7534725704641       -4.1556141591799731       -1255.2958481508858        301329.42932030291     
   2311.3880788570218       -4.1625032508122075       -1255.1903091187469        302584.61962942168     
   2334.0226851435796       -4.1627335955478930       -1256.2911684661501        303840.91079788783     
   2356.6572914301373       -4.1579103661744705       -1258.2180985200739        305099.12889640790     
   2379.2918977166951       -4.1496227605587483       -1260.6295132191847        306359.75840962707     
   2401.9265040032528       -4.1396446322066618       -1263.0025567924370        307622.76096641953     
   2425.9191866670039       -4.1276889847518454       -1265.6877253863813        308888.44869180594     
   2451.3514302905801       -4.1155546526171483       -1268.1089303111876        310156.55762211711     
   2478.3096085315710       -4.1348747650805757       -1260.2665330478314        311416.82415516494     
   2502.5719689484627       -4.1808967655778968       -1245.6686034611541        312662.49275862612     
