 #              _____________________  _______________________             #
 #              ___  __ \__  __ \_  / / /_  /___  ____/_  ___/             #
 #              __  / / /_  /_/ /  / / /_  __/_  __/  _____ \              #
 #              _  /_/ /_  _, _// /_/ / / /_ _  /___  ____/ /              #
 #              /_____/ /_/ |_| \____/  \__/ /_____/  /____/               #
 #                                                                         #
  
 #        time                      T            heat flux [W.L-2]   in    x              directions   cumulative flux
 #-----------------------------------------------------------------------------------------------

   0.0000000000000000        20.000000000000000       -0.0000000000000000        0.0000000000000000     
   1.0000000000000000        20.000000000000000       -6.7785776991513509E-012   6.7785776991513509E-012
   1.9540000000000002        20.000000000000000       -5.1969095693493766E-011   5.8747673392645122E-011
   2.8641160000000001        19.999999999999979       -2.2595258997171315E-010   2.8470026336435829E-010
   3.8288389600000006        19.999999999999890       -9.3318419658319459E-010   1.2178844599475530E-009
   4.8514452976000007        19.999999999999542       -3.4909675150632977E-009   4.7088519750108507E-009
   5.9354080154560007        19.999999999998302       -1.1855732395819766E-008   1.6564584370830617E-008
   7.0844084963833609        19.999999999994198       -3.6947767512213551E-008   5.3512351883044168E-008
   8.3023490061663630        19.999999999981672       -1.0687331553104741E-007   1.6038566741409157E-007
   9.5933659465363448        19.999999999945850       -2.8972770849362675E-007   4.5011337590771832E-007
   10.961843903328527        19.999999999849081       -7.4215370917022532E-007   1.1922670850779437E-006
   12.412430537528239        19.999999999600451       -1.8084341491904084E-006   3.0007012342683518E-006
   13.950052369779934        19.999999998989573       -4.2153116415781935E-006   7.2160128758465453E-006
   15.579931511966731        19.999999997547718       -9.4420853667512253E-006   1.6658098242597771E-005
   17.307603402684734        19.999999994266062       -2.0401979019207195E-005   3.7060077261804967E-005
   19.138935606845820        19.999999987040859       -4.2660363079541565E-005   7.9720440341346532E-005
   21.080147743256571        19.999999971611633       -8.6553609458242441E-005   1.6627404979958899E-004
   23.137832607851966        19.999999939582391       -1.7077892360501586E-004   3.3705297340460487E-004
   25.318978564323086        19.999999874826468       -3.2832464477540501E-004   6.6537761818000988E-004
   27.630993278182473        19.999999747111403       -6.1603000588260804E-004   1.2814076240626180E-003
   30.081728874873424        19.999999501056827       -1.1296307682075596E-003   2.4110383922701776E-003
   32.679508607365833        19.999999037440539       -2.0268861181139517E-003   4.4379245103841293E-003
   35.433155123807786        19.999998182249094       -3.5623031530072841E-003   8.0002276633914134E-003
   38.352020431236255        19.999996636551618       -6.1380659269366792E-003   1.4138293590328092E-002
   41.446017657110431        19.999993897057919       -1.0376986771835850E-002   2.4515280362163942E-002
   44.725654716537058        19.999989132900854       -1.7224528556455922E-002   4.1739808918619864E-002
   48.202069999529286        19.999980998584512       -2.8088033391279042E-002   6.9827842309898913E-002
   51.887070199501046        19.999967356072297       -4.5022001261863925E-002  0.11484984357176284     
   55.793170411471110        19.999944870708255       -7.0968288479529990E-002  0.18581813205129283     
   59.933636636159378        19.999908436356677      -0.11005908931289038       0.29587722136418321     
   64.322530834328944        19.999850375404986      -0.16798816396113514       0.46386538532531835     
   68.974758684388689        19.999759350080978      -0.25245167133466351       0.71631705665998191     
   73.906120205452012        19.999618914276866      -0.37365397355784430        1.0899710302178263     
   79.133363417779137        19.999405631524873      -0.54486593301168251        1.6348369632295088     
   84.674241222845893        19.999086686976625      -0.78301384809585484        2.4178508113253638     
   90.547571696216650        19.998616931302610       -1.1092669426568167        3.5271177539821803     
   96.773301997989648        19.997935314193921       -1.5495812573779135        5.0766990113600938     
   103.37257611786903        19.996960695822473       -2.1351491968888623        7.2118482082489557     
   110.36780668494117        19.995587066360791       -2.9026983230114811        10.114546531260437     
   117.78275108603765        19.993678255246756       -3.8945816644577778        14.009128195718215     
   125.64259215119992        19.991062270466720       -5.1586059606998464        19.167734156418064     
   133.97402368027193        19.987525469290983       -6.7475544660941846        25.915288622512250     
   142.80534110108826        19.982806819885528       -8.7183770887187322        34.633665711230982     
   152.16653756715357        19.976592561537981       -11.131041801921603        45.764707513152587     
   162.08940582118279        19.968511603387800       -14.047065753159364        59.811773266311953     
   172.60764617045376        19.958132011969305       -17.527770013543901        77.339543279855860     
   183.75698094068099        19.944958922776443       -21.632325855784050        98.971869135639906     
   195.57527579712186        19.928434169134629       -26.415680246634700        125.38754938227461     
   208.10266834494917        19.907937854462411       -31.926461716614519        157.31401109888913     
   221.38170444564611        19.882792005890551       -38.204973449609007        195.51898454849814     
   235.45748271238489        19.852266344916430       -45.281377738716401        240.80036228721454     
   250.37780767512800        19.815586102618497       -53.174165255483409        293.97452754269796     
   266.19335213563568        19.771941701797811       -61.888985112746767        355.86351265544471     
   282.95782926377382        19.720500034585690       -71.417889355544617        427.28140201098932     
   300.72817501960026        19.660416988414294       -81.739020544952510        509.02042255594182     
   319.56474152077629        19.590850820483798       -92.816745818016983        601.83716837395878     
   335.53814991377357        19.527870169831395       -102.25033338821537        704.08750176217416     
   352.46996281035069        19.456925759717773       -112.23433034874174        816.32183211091592     
   369.40177570692782        19.382098154311056       -122.15127663707422        938.47310874799018     
   386.33358860350495        19.303689504252183       -131.95739139785175        1070.4305001458420     
   403.26540150008208        19.221998814198518       -141.61545035940381        1212.0459505052459     
   420.19721439665921        19.137319207604051       -151.09404965596440        1363.1400001612103     
   437.12902729323633        19.049935582010981       -160.36716262289133        1523.5071627841016     
   454.06084018981346        18.960122542319208       -169.41379408858370        1692.9209568726853     
   470.99265308639059        18.868142707606509       -178.21757881774417        1871.1385356904295     
   487.92446598296772        18.774245467199929       -186.76629668817404        2057.9048323786037     
   504.85627887954485        18.678666247623923       -195.05130951833559        2252.9561418969392     
   521.78809177612197        18.581626306484061       -203.06693362656165        2456.0230755235007     
   538.71990467269904        18.483333009674496       -210.80980386503259        2666.8328793885335     
   555.65171756927612        18.383980468434132       -218.27830095553128        2885.1111803440649     
   572.58353046585319        18.283750373996067       -225.47209679380992        3110.5832771378750     
   589.51534336243026        18.182812878742784       -232.39183467834175        3342.9751118162167     
   606.44715625900733        18.081327421735736       -239.03892511695838        3582.0140369331752     
   623.37896915558440        17.979443459253520       -245.41541570584417        3827.4294526390195     
   640.31078205216147        17.877301126713043       -251.52387936068223        4078.9533319997017     
   657.24259494873854        17.775032081945525       -257.36713026131901        4336.3204622610210     
   672.48122655565794        17.682978355434457       -262.41315206070146        4598.7336143217226     
   683.45304131263993        17.616726437918643       -265.93654736093185        4864.6701616826540     
   694.42485606962191        17.550532925435014       -269.35110971339401        5134.0212713960482     
   706.05497971202283        17.480469514625987       -272.84929521192555        5406.8705666079741     
   718.38291077296776        17.406357672483445       -276.42254941307522        5683.2931160210492     
   731.45051769756935        17.328019937394675       -280.06082760439318        5963.3539436254423     
   745.30218103764707        17.245281171919096       -283.75290772073726        6247.1068513461796     
   759.98494417812947        17.157969599037038       -287.48662520918123        6534.5934765553611     
   774.66770731861186        17.071099570472981       -291.04588667345547        6825.6393632288164     
   789.35047045909425        16.984716047892917       -294.43623767194174        7120.0756009007582     
   804.03323359957665        16.898859621436856       -297.66307700364325        7417.7386779044018     
   818.71599674005904        16.813566910168056       -300.73172462265075        7718.4704025270530     
   833.39875988054143        16.728870778658873       -303.64752811225975        8022.1179306393124     
   848.08152302102383        16.644800500250522       -306.41588961541794        8328.5338202547300     
   862.76428616150622        16.561381954938341       -309.04222156557125        8637.5760418203008     
   877.44704930198861        16.478637874806374       -311.53188138099421        8949.1079232012944     
   892.12981244247101        16.396588125693960       -313.89010633984128        9262.9980295411351     
   905.34429926890516        16.323318550448931       -315.90971490459583        9578.9077444457307     
   918.55878609533931        16.250635502371459       -317.83006593627493        9896.7378103820065     
   930.45182423913002        16.185703255028823       -319.48040360832687        10216.218213990333     
   941.15555856854166        16.127659935319773       -320.90427530664732        10537.122489296980     
   951.85929289795331        16.070016657869580       -322.26847636439987        10859.390965661380     
   962.56302722736496        16.012777110954424       -323.57487937654344        11182.965845037923     
   973.26676155677660        15.955944188232419       -324.82555144076395        11507.791396478688     
   983.97049588618825        15.899519871208383       -326.02275252013919        11833.814148998827     
   994.67423021559989        15.843505176756695       -327.16887768487942        12160.983026683705     
   1005.3779645450115        15.787900174874132       -328.26638022119937        12489.249406904904     
   1016.0816988744232        15.732704054185040       -329.31770510619600        12818.567112011100     
   1026.7854332038348        15.677915206549264       -330.32524907729993        13148.892361088399     
   1037.4891675332465        15.623531304164574       -331.29135069392970        13480.183711782329     
   1048.1929018626581        15.569549350290686       -332.21830664469968        13812.402018427028     
   1058.8966361920698        15.515965693590749       -333.10839812636664        14145.510416553396     
   1070.2425945812461        15.459609380267638       -334.01322691583351        14479.523643469229     
   1082.2693104737730        15.400361466045114       -334.93225073895547        14814.455894208184     
   1094.2960263662999        15.341594917860213       -335.81459514534225        15150.270489353527     
   1106.3227422588268        15.283300192663733       -336.66373430955809        15486.934223663084     
   1118.3494581513537        15.225466659611181       -337.48313157992396        15824.417355243007     
   1130.3761740438806        15.168082733741095       -338.27614404272367        16162.693499285731     
   1142.4028899364075        15.111136100768379       -339.04590244322077        16501.739401728952     
   1155.1512087824860        15.051248772263552       -339.83906310753957        16841.578464836490     
   1168.6644267593292        14.988284761389684       -340.65760650270244        17182.236071339194     
   1182.1776447361724        14.925819105085662       -341.45675984017714        17523.692831179371     
   1195.6908627130156        14.863834083856020       -342.23882045740913        17865.931651636780     
   1209.2040806898588        14.802312829976225       -343.00550556251329        18208.937157199292     
   1223.5280917453126        14.737602742901016       -343.80223301062733        18552.739390209921     
   1238.7115434640937        14.669554817034825       -344.62944431922352        18897.368834529145     
   1254.8060022860016        14.598016062907742       -345.48653655597093        19242.855371085116     
   1271.8661286372239        14.522831019731209       -346.37149962889231        19589.226870714007     
   1289.9498625695198        14.443843840336957       -347.28052878877918        19936.507399502785     
   1309.1186205377535        14.360900732208393       -348.20777943571807        20284.715178938503     
   1328.2873785059871        14.278732457881091       -349.09580426850255        20633.810983207004     
   1347.4561364742208        14.197332529786186       -349.94320661781649        20983.754189824820     
   1366.6248944424544        14.116694639207575       -350.75003908412464        21334.504228908943     
   1386.9437778887821        14.032063832913412       -351.56238730622368        21686.066616215168     
   1408.4817943418893        13.943282941985046       -352.38292184634844        22038.449538061515     
   1423.0931847036773        13.883470975713507       -352.92455001511240        22391.374088076627     
   1438.5812584871726        13.820523187721632       -353.48700003796330        22744.861088114591     
   1454.0693322706679        13.758009556232150       -354.04260272712429        23098.903690841715     
   1469.5574060541633        13.695910480189095       -354.59469375043761        23453.498384592152     
   1485.0454798376586        13.634207813157204       -355.14449766726096        23808.642882259413     
   1500.5335536211539        13.572886891763734       -355.69101136671526        24164.333893626128     
   1516.0216274046493        13.511937944505547       -356.23126888738824        24520.565162513518     
   1531.5097011881446        13.451356844171336       -356.76082512690670        24877.325987640426     
   1547.9270593986496        13.387556158660406       -357.30378680293393        25234.629774443361     
   1565.3294591017848        13.320404351419443       -357.85070083630825        25592.480475279670     
   1583.7760027871082        13.249779339072342       -358.38930758875517        25950.869782868423     
   1603.3293390935510        13.175570299370989       -358.90593264787600        26309.775715516298     
   1622.8826753999938        13.102042322989583       -359.36488414882621        26669.140599665123     
   1642.4360117064366        13.029217198081488       -359.76681170742813        27028.907411372551     
   1661.9893480128794        12.957109623288575       -360.11477489109620        27389.022186263646     
   1681.5426843193222        12.885727226998402       -360.41326375580132        27749.435450019446     
   1702.2692208041515        12.810875185186976       -360.68172454691967        28110.117174566367     
   1724.2393494780706        12.732427750742129       -360.92555793871497        28471.042732505080     
   1747.5276858724249        12.650229383945792       -361.16169783734210        28832.204430342423     
   1772.2133224504403        12.564077568182643       -361.41845362665464        29193.622883969078     
   1796.8989590284557        12.478790961883021       -361.70653329784943        29555.329417266927     
   1821.5845956064711        12.394260454753521       -362.03779680936225        29917.367214076290     
   1846.2702321844865        12.310400985837529       -362.40978961572085        30279.777003692012     
   1872.4370069571830        12.222200149274521       -362.83583921107453        30642.612842903087     
   1893.3704267753401        12.152062258611764       -363.18910378499874        31005.801946688087     
   1914.3038465934972        12.082338826825110       -363.54667456291327        31369.348621251000     
   1935.2372664116542        12.013031483184328       -363.90002307644022        31733.248644327439     
   1957.4266914189009        11.940045616245818       -364.25946106864325        32097.508105396082     
   1980.9474819265822        11.863245194971002       -364.61203171987103        32462.120137115951     
   2004.4682724342636        11.787040561817967       -364.92743492564620        32827.047572041600     
   2027.9890629419449        11.711463285342493       -365.20006702601125        33192.247639067609     
   2051.5098534496265        11.636543270040574       -365.42669122709424        33557.674330294707     
   2076.4418913877689        11.557898634643209       -365.61282880290395        33923.287159097614     
   2102.8698516021996        11.475426135740426       -365.75307782437181        34289.040236921988     
   2119.7837461394352        11.423010404150343       -365.82308673863264        34654.863323660618     
   2137.7124743489048        11.367856945077527       -365.88096415013922        35020.744287810754     
   2156.7169262509428        11.309839547099434       -365.93031491135190        35386.674602722109     
   2176.8616452671031        11.248820941921068       -365.97625979796152        35752.650862520073     
   2198.2150474242330        11.184647217263706       -366.02762599455338        36118.678488514626     
   2220.8496537107908        11.117148133683017       -366.09303592586821        36484.771524440497     
   2243.4842599973485        11.050135975661448       -366.17159944464862        36850.943123885147     
   2266.1188662839063        10.983584628705671       -366.25931992926030        37217.202443814407     
   2288.7534725704641        10.917484396647632       -366.34728108631521        37583.549724900724     
   2311.3880788570218        10.851843005236184       -366.42345138167508        37949.973176282401     
   2334.0226851435796        10.786684050437053       -366.47456615267276        38316.447742435077     
   2356.6572914301373        10.722043697083201       -366.48779345975856        38682.935535894838     
   2379.2918977166951        10.657966459678207       -366.45200660171622        39049.387542496552     
   2401.9265040032528        10.594500983595044       -366.35860514528179        39415.746147641832     
   2425.9191866670039        10.527971987076118       -366.18831183749785        39781.934459479329     
   2451.3514302905801        10.458350191642417       -365.92411339063261        40147.858572869962     
   2478.3096085315710        10.385610992247143       -365.55736192735299        40513.415934797318     
   2502.5719689484627        10.321009445558062       -365.17480599666015        40878.590740793981     
