 #              _____________________  _______________________             #
 #              ___  __ \__  __ \_  / / /_  /___  ____/_  ___/             #
 #              __  / / /_  /_/ /  / / /_  __/_  __/  _____ \              #
 #              _  /_/ /_  _, _// /_/ / / /_ _  /___  ____/ /              #
 #              /_____/ /_/ |_| \____/  \__/ /_____/  /____/               #
 #                                                                         #
  
 #        time                      T            heat flux [W.L-2]   in    x              directions   cumulative flux
 #-----------------------------------------------------------------------------------------------

   0.0000000000000000          4.9545000000000003           6.9456715045706163          0.0000000000000000     
   1.0000000000000000          4.9541206925870496           7.0626611256946541          0.0000000000000000     
   2.0060000000000002          4.9537610308853575           7.1701096527114050          7.1701096527114050     
   3.0180360000000004          4.9534194745410662           7.2688386916121264          14.482561376473203     
   4.0361442160000003          4.9530946083315337           7.3595991979127664          21.930740710332046     
   5.0603610812960005          4.9527851320345970           7.4430772729221166          29.508598834216926     
   6.0907232477837763          4.9524898510652289           7.5198995214709239          37.210606749438767     
   7.1272675872704792          4.9522076678274649           7.5906380007269343          45.031712964892215     
   8.1700311927941023          4.9519375737324838           7.6558147880210852          52.967304447574058     
   9.2190513799508675          4.9516786418366410           7.7159061939854032          61.013170610296328     
   10.274365688230573          4.9514300200559864           7.7713466457380944          69.165470123068602     
   11.336011882359955          4.9511909249164381           7.8225322633847920          77.420700347598199     
   12.404027953654115          4.9509606358012865           7.8698241516703673          85.775669206686544     
   13.478452121376039          4.9507384896600835           7.9135514272826981          94.227469312037300     
   14.559322834104295          4.9505238761452164           7.9540140010293614          102.77345418514180     
   15.646678771108920          4.9503162331446324           7.9914851328783136          111.41121641647325     
   16.740558843735574          4.9501150426812002           8.0262137767164798          120.13856761825423     
   17.841002196797987          4.9499198271511258           8.0584267305781179          128.95352003555558     
   18.948048209978776          4.9497301458756686           8.0883306070573653          137.85426968946314     
   20.061736499238648          4.9495455919421216           8.1161136376389376          146.83918093453354     
   21.182106918234080          4.9493657893116341           8.1419473237690738          155.90677232078593     
   22.309199559743483          4.9491903901730305           8.1659879465911622          165.05570365801992     
   23.443054757101944          4.9490190725231784           8.1883779464697497          174.28476418738387     
   24.583713085644554          4.9488515379558624           8.2092471826375704          183.59286177181778     
   25.731215364158420          4.9486875096423759           8.2287140825664338          192.97901302329305     
   26.885602656343369          4.9485267304882665           8.2468866899929534          202.44233429070565     
   28.046916272281429          4.9483689614517798           8.2638636198696975          211.98203343783274     
   29.215197769915118          4.9482139800106424           8.2797349279094927          221.59740234597197     
   30.390488956534607          4.9480615787647899           8.2945829018277557          231.28781008076609     
   31.572831890273815          4.9479115641635829           8.3084827808581139          241.05269666728844     
   32.762268881615455          4.9477637553469336           8.3215034096138805          250.89156742173213     
   33.958842494905149          4.9476179830905744           8.3337078319067626          260.80398779203557     
   35.162595549874581          4.9474740888464623           8.3451538296933183          270.78957866349003     
   36.373571123173825          4.9473319238700126           8.3558944119361467          280.84801208886017     
   37.591812549912866          4.9471913484265286           8.3659782577591546          290.97900740575909     
   38.817363425212342          4.9470522310697937           8.3754501179525889          301.18232770703531     
   40.050267605763615          4.9469144479863694           8.3843511785459377          311.45777663272048     
   41.290569211398200          4.9467778823996804           8.3927193898552286          321.80519545466672     
   42.538312626666588          4.9466424240284574           8.4005897641468188          332.22446042741547     
   43.793542502426590          4.9465079685945366           8.4079946447900564          342.71548038106414     
   45.056303757441150          4.9463744173754902           8.4149639495241644          353.27819453395023     
   46.326641579985797          4.9462416767978956           8.4215253902557805          363.91257050488662     
   47.604601429465710          4.9461096580674662           8.4277046715780255          374.61860250642837     
   48.890229038042506          4.9459782768325447           8.4335256700322727          385.39630970228779     
   50.183570412270761          4.9458474528778194           8.4390105959325670          396.24573471349083     
   51.484671834744383          4.9457171098453605           8.4441801394387817          407.16694225926352     
   52.793579865752847          4.9455871749803810           8.4490536023868756          418.16001791988498     
   54.110341344947365          4.9454575788993038           8.4536490172763799          429.22506700992489     
   55.435003393017048          4.9453282553780182           8.4579832546531684          440.36221355132443     
   56.767613413375152          4.9451991411583265           8.4620721200468818          451.57159933677912     
   58.108219093855404          4.9450701757708195           8.4659304414945300          462.85338307476940     
   59.456868408418536          4.9449413013725829           8.4695721485819853          474.20773960839574     
   60.813609618869044          4.9448124625982608           8.4730103438608051          485.63485920092995     
   62.178491276582257          4.9446836064231823           8.4762573674082429          497.13494688167748     
   63.551562224241749          4.9445546820373494           8.4793248552198008          508.70822184635875     
   64.932871597587194          4.9444256407292455           8.4822237920617649          520.35491690678487     
   66.322468827172713          4.9442964357784716           8.4849645593577883          532.07527798512979     
   67.720403640135743          4.9441670223563712           8.4875569786010843          543.86956364854314     
   69.126726061976555          4.9440373574338521           8.4900103507654556          555.73804468029471     
   70.541486418348413          4.9439073996957275           8.4923334921165647          567.68100368400792     
   71.964735336858510          4.9437771094609131           8.4945347668037083          579.69873471790424     
   73.396523748879659          4.9436464486079750           8.4966221165471172          591.79154295626881     
   74.836902891372944          4.9435153805054775           8.4986030877348799          603.95974437565474     
   76.285924308721178          4.9433838699467074           8.5004848561854587          616.20366546358423     
   77.743639854573502          4.9432518830883758           8.5022742498153665          628.52364294773508     
   79.210101693700949          4.9431193873929198           8.5039777694323284          640.92002354381918     
   80.685362303863158          4.9429863515741070           8.5056016078304992          653.39316372052360     
   82.169474477686336          4.9428527455456468           8.5071516673696639          665.94342948006977     
   83.662491324552448          4.9427185403725442           8.5086335761895651          678.57119615309330     
   85.164466272499766          4.9425837082249986           8.5100527031779567          691.27684820665650     
   86.675453070134765          4.9424482223346091           8.5114141718418939          704.06077906436678     
   88.195505788555579          4.9423120569527388           8.5127228731590225          716.92339093763553     
   89.724678823286908          4.9421751873108475           8.5139834775252954          729.86509466723771     
   91.263026896226634          4.9420375895826760           8.5152004458765091          742.88630957440432     
   92.810605057603993          4.9418992408481319           8.5163780400590543          755.98746332075530     
   94.367468687949611          4.9417601190587810           8.5175203325179982          769.16899177644780     
   95.933673500077305          4.9416202030048240           8.5186312153648966          782.43133889597630     
   97.509275541077770          4.9414794722834818           8.5197144088736465          795.77495660110787     
   99.094331194324241          4.9413379072686983           8.5207734694557882          809.20030467048502     
   100.68889718149019          4.9411954890820828           8.5218117971604492          822.70785063547658     
   102.29303056457913          4.9410521995650356           8.5228326427302914          836.29806968188200     
   103.90678874796660          4.9409080212519925           8.5238391142479202          849.97144455712635     
   105.53022948045439          4.9407629373447213           8.5248341834148054          863.72846548263328     
   107.16341085733713          4.9406169316876385           8.5258206914687289          877.56963007105094     
   108.80639132248115          4.9404699887440806           8.5268013547913579          891.49544324807459     
   110.45922967041604          4.9403220935735055           8.5277787701992018          905.50641717858184     
   112.12198504843853          4.9401732318095730           8.5287554199628950          919.60307119685399     
   113.79471695872917          4.9400233896390766           8.5297336765536063          933.78593174064315     
   115.47748526048154          4.9398725537816732           8.5307158071493987          948.05553228888266     
   117.17035017204444          4.9397207114704109           8.5317039779023709          962.41241330283140     
   118.87337227307670          4.9395678504329918           8.5327002579925235          976.85712217047057     
   120.58661250671516          4.9394139588737698           8.5337066234678645          991.39021315396178     
   122.31013218175545          4.9392590254564297           8.5347249608972167          1006.0122473400094     
   124.04399297484598          4.9391030392873470           8.5357570708349542          1020.7237925929577     
   125.78825693269505          4.9389459898995849           8.5368046711120140          1035.5254235104710     
   127.54298647429123          4.9387878672375241           8.5378693999600017          1050.4177213816438     
   129.30824439313696          4.9386286616420723           8.5389528189856048          1065.4012741474137     
   131.08409385949579          4.9384683638364670           8.5400564159899286          1080.4766763631294     
   132.87059842265276          4.9383069649126314           8.5411816076531260          1095.6445291631539     
   134.66782201318867          4.9381444563180601           8.5423297420814741          1110.9054402273741     
   136.47582894526781          4.9379808298432213           8.5435021012321464          1126.2600237495017     
   138.29468391893943          4.9378160776094697           8.5446999032140063          1141.7089004070485     
   140.12445202245306          4.9376501920574132           8.5459243044807653          1157.2526973328745     
   141.96519873458777          4.9374831659357667           8.5471764019094980          1172.8920480881930     
   143.81698992699529          4.9373149922906228           8.5484572347836743          1188.6275926369453     
   145.67989186655726          4.9371456644551728           8.5497677866742201          1204.4599773214381     
   147.55397121775661          4.9369751760398151           8.5511089872316361          1220.3898548391578     
   149.43929504506315          4.9368035209226688           8.5524817138910869          1236.4178842206711     
   151.33593081533354          4.9366306932404669           8.5538867934941898          1252.5447308085284     
   153.24394640022555          4.9364566873797955           8.5553250038351099          1268.7710662370905     
   155.16341007862690          4.9362814979686993           8.5567970751300919          1285.0975684131970     
   157.09439053909867          4.9361051198686079           8.5583036914197805          1301.5249214976054     
   159.03695688233327          4.9359275481665845           8.5598454919065770          1318.0538158871343     
   160.99117862362726          4.9357487781678797           8.5614230722275888          1334.6849481974357     
   162.95712569536903          4.9355688053887778           8.5630369856702497          1351.4190212463370     
   164.93486844954126          4.9353876255497209           8.5646877443359486          1368.2567440376968     
   166.92447766023849          4.9352052345687056           8.5663758202469147          1385.1988317457062     
   168.92602452619994          4.9350216285549244           8.5681016464092838          1402.2460056995924     
   170.93958067335714          4.9348368038026642           8.5698656178270394          1419.3989933686648     
   172.96521815739729          4.9346507567854294           8.5716680924752762          1436.6585283476597     
   175.00300946634167          4.9344634841502915           8.5735093922316512          1454.0253503423344     
   177.05302752313972          4.9342749827124450           8.5753898037733620          1471.5002051552740     
   179.11534568827855          4.9340852494499758           8.5773095794329191          1489.0838446718583     
   181.19003776240822          4.9338942814988158           8.5792689380273277          1506.7770268463635     
   183.27717798898269          4.9337020761478767           8.5812680656547897          1524.5805156881595     
   185.37684105691659          4.9335086308343765           8.5833071164572434          1542.4950812479601     
   187.48910210325809          4.9333139431393116           8.5853862133665082          1560.5214996041145     
   189.61403671587763          4.9331180107831063           8.5875054488151026          1578.6605528488919     
   191.75172093617289          4.9329208316214004           8.5896648854307021          1596.9130290747464     
   193.90223126178992          4.9327224036409927           8.5918645567057155          1615.2797223605303     
   196.06564464936065          4.9325227249559127           8.5941044676462450          1633.7614327576350     
   198.24203851725682          4.9323217938036281           8.5963845954077716          1652.3589662760471     
   200.43149074836035          4.9321196085413765           8.5987048899048393          1671.0731348702848     
   202.63407969285052          4.9319161676426129           8.6010652744131182          1689.9047564252157     
   204.84988417100763          4.9317114696935791           8.6034656461497026          1708.8546547417259     
   207.07898347603367          4.9315055133899666           8.6059058768460748          1727.9236595222399     
   209.32145737688987          4.9312982975336936           8.6083858133038174          1747.1126063560714     
   211.57738612115119          4.9310898210297784           8.6109052779384676          1766.4223367045934     
   213.84685043787809          4.9308800828833013           8.6134640693163025          1785.8536978862262     
   216.12993154050537          4.9306690821964594           8.6160619626758770          1805.4075430612270     
   218.42671112974841          4.9304568181657080           8.6186987104452903          1825.0847312162825     
   220.73727139652689          4.9302432900789750           8.6213740427470462          1844.8861271488936     
   223.06169502490604          4.9300284973129616           8.6240876678978289          1864.8126014515526     
   225.40006519505548          4.9298124393305143           8.6268392728994847          1884.8650304957096     
   227.75246558622581          4.9295951156780644           8.6296285239215464          1905.0442964155184     
   230.11898037974316          4.9293765259831437           8.6324550667789630          1925.3512870913696     
   232.49969426202162          4.9291566699519533           8.6353185274078132          1945.7868961332147     
   234.89469242759375          4.9289355473670042           8.6382185123291855          1966.3520228636714     
   237.30406058215931          4.9287131580848174           8.6411546091093552          1987.0475723009135     
   239.72788494565228          4.9284895020336750           8.6441263868213802          2007.8744551413608     
   242.16625225532619          4.9282645792114321           8.6471333964925652          2028.8335877421532     
   244.61924976885814          4.9280383896833824           8.6501751715550395          2049.9258921034261     
   247.08696526747130          4.9278109335801705           8.6532512282912197          2071.1522958503920     
   249.56948705907612          4.9275822110957606           8.6563610662719519          2092.5137322152227     
   252.06690398143058          4.9273522224854469           8.6595041687957561          2114.0111400187511     
   254.57930540531916          4.9271209680639156           8.6626800033216007          2135.6454636519879     
   257.10678123775108          4.9268884482033473           8.6658880218996401          2157.4176530574678     
   259.64942192517759          4.9266546633315649           8.6691276616000330          2179.3286637104288     
   262.20731845672867          4.9264196139302250           8.6723983449363420          2201.3794565998342     
   264.78056236746903          4.9261833005330509           8.6756994802867062          2223.5709982092390     
   267.36924574167386          4.9259457237241033           8.6790304623135590          2245.9042604975175     
   269.97346121612389          4.9257068841360914           8.6823906723805457          2268.3802208794600     
   272.59330198342064          4.9254667824487282           8.6857794789618037          2290.9998622062330     
   275.22886179532117          4.9252254193871083           8.6891962380577290          2313.7641727457381     
   277.88023496609310          4.9249827957201378           8.6926402935983056          2336.6741461628530     
   280.54751637588964          4.9247389122589906           8.6961109778506920          2359.7307814995816     
   283.23080147414498          4.9244937698556042           8.6996076118194345          2382.9350831551124     
   285.93018628298984          4.9242473694012094           8.7031295056483806          2406.2880608658052     
   288.64576740068776          4.9239997118248935           8.7066759590138361          2429.7907296851022     
   291.37764200509190          4.9237507980921960           8.7102462615194032          2453.4441099633832     
   294.12590785712246          4.9235006292037351           8.7138396930880049          2477.2492273277790     
   296.89066330426522          4.9232492061938729           8.7174555243479617          2501.2071126619394     
