 #              _____________________  _______________________             #
 #              ___  __ \__  __ \_  / / /_  /___  ____/_  ___/             #
 #              __  / / /_  /_/ /  / / /_  __/_  __/  _____ \              #
 #              _  /_/ /_  _, _// /_/ / / /_ _  /___  ____/ /              #
 #              /_____/ /_/ |_| \____/  \__/ /_____/  /____/               #
 #                                                                         #
  
 #        time                      T            heat flux [W.L-2]   in    x              directions   cumulative flux
 #-----------------------------------------------------------------------------------------------

   0.0000000000000000          5.0792999999999999          -5.9533698199887803          0.0000000000000000     
   1.0000000000000000          5.0793006277716142          -5.9535571465344033          0.0000000000000000     
   2.0060000000000002          5.0793012241128315          -5.9537295529770926          5.9537295529770926     
   3.0180360000000004          5.0793017912516900          -5.9538888100294356          11.943341695866705     
   4.0361442160000003          5.0793023310078835          -5.9540368013116440          17.969041284118937     
   5.0603610812960005          5.0793028447305906          -5.9541755406592651          24.031036321570376     
   6.0907232477837763          5.0793033332323025          -5.9543071763112296          30.129538152701340     
   7.1272675872704792          5.0793037967215202          -5.9544339847456591          36.264761653432316     
   8.1700311927941023          5.0793042347367185          -5.9545583565479028          42.436925412055288     
   9.2190513799508675          5.0793046460834796          -5.9546827763552832          48.646251893676940     
   10.274365688230573          5.0793050287763126          -5.9548097986231872          54.892967583111570     
   11.336011882359955          5.0793053799863523          -5.9549420206903276          61.177303102522131     
   12.404027953654115          5.0793056959957816          -5.9550820543734400          67.499493301275891     
   13.478452121376039          5.0793059721595792          -5.9552324971086152          73.859777316481143     
   14.559322834104295          5.0793062028749674          -5.9553959034800972          80.258398603532299     
   15.646678771108920          5.0793063815587347          -5.9555747577968248          86.695604936698558     
   16.740558843735574          5.0793065006324456          -5.9557714482447057          93.171648380390081     
   17.841002196797987          5.0793065515154003          -5.9559882430067246          99.686785232213765     
   18.948048209978776          5.0793065246251192          -5.9562272686446338          106.24127593932285     
   20.061736499238648          5.0793064093850129          -5.9564904909416017          112.83538498986901     
   21.182106918234080          5.0793061942388249          -5.9567796983130368          119.46938078158119     
   22.309199559743483          5.0793058666714161          -5.9570964878477035          126.14353546966734     
   23.443054757101944          5.0793054132353461          -5.9574422539659340          132.85812479632955     
   24.583713085644554          5.0793048195827728          -5.9578181796466083          139.61342790423859     
   25.731215364158420          5.0793040705020820          -5.9582252301398997          146.40972713633039     
   26.885602656343369          5.0793031499587258          -5.9586641490352417          153.24730782424723     
   28.046916272281429          5.0793020411397078          -5.9591354565611985          160.12645806771025     
   29.215197769915118          5.0793007265011738          -5.9596394499476117          167.04746850701602     
   30.390488956534607          5.0792991878185800          -5.9601762056869392          174.01063209075664     
   31.572831890273815          5.0792974062389513          -5.9607455835203655          181.01624384074918     
   32.762268881615455          5.0792953623347072          -5.9613472319630185          188.06460061602644     
   33.958842494905149          5.0792930361586324          -5.9619805951989617          195.15600087761715     
   35.162595549874581          5.0792904072995428          -5.9626449211566275          202.29074445568895     
   36.373571123173825          5.0792874549382496          -5.9633392706019146          209.46913232049519     
   37.591812549912866          5.0792841579034587          -5.9640625270776759          216.69146635841562     
   38.817363425212342          5.0792804947272536          -5.9648134075288137          223.95804915423571     
   40.050267605763615          5.0792764436998645          -5.9655904734691694          231.26918378067407     
   41.290569211398200          5.0792719829234469          -5.9663921425435049          238.62517359602424     
   42.538312626666588          5.0792670903646124          -5.9672167003535312          246.02632205064222     
   43.793542502426590          5.0792617439055183          -5.9680623124365972          253.47293250289641     
   45.056303757441150          5.0792559213933055          -5.9689270362770221          260.96530804506290     
   46.326641579985797          5.0792496006877279          -5.9698088332525323          268.50375133953787     
   47.604601429465710          5.0792427597068572          -5.9707055804381817          276.08856446564687     
   48.890229038042506          5.0792353764707316          -5.9716150821727680          283.72004877721236     
   50.183570412270761          5.0792274291428718          -5.9725350813321629          291.39850477096644     
   51.484671834744383          5.0792188960695990          -5.9734632702442374          299.12423196580613     
   52.793579865752847          5.0792097558171090          -5.9743973011971487          306.89752879281633     
   54.110341344947365          5.0791999872062634          -5.9753347964974575          314.71869249591617     
   55.435003393017048          5.0791895693451075          -5.9762733580464644          322.58801904292824     
   56.767613413375152          5.0791784816591097          -5.9772105764099281          330.50580304681921     
   58.108219093855404          5.0791667039191193          -5.9781440393515046          338.47233769680309     
   59.456868408418536          5.0791542162671206          -5.9790713398353237          346.48791469898299     
   60.813609618869044          5.0791409992397636          -5.9799900834685946          354.55282422614727     
   62.178491276582257          5.0791270337897805          -5.9808978953978551          362.66735487633025     
   63.551562224241749          5.0791123013052912          -5.9817924266509417          370.83179363971396     
   64.932871597587194          5.0790967836271053          -5.9826713599394283          379.04642587344131     
   66.322468827172713          5.0790804630640674          -5.9835324149223776          387.31153528388995     
   67.720403640135743          5.0790633224065216          -5.9843733529503558          395.62740391595520     
   69.126726061976555          5.0790453449379811          -5.9851919812990886          403.99431214888040     
   70.541486418348413          5.0790265144450810          -5.9859861569212596          412.41253869818752     
   71.964735336858510          5.0790068152258971          -5.9867537897230001          420.88236062324660     
   73.396523748879659          5.0789862320967130          -5.9874928453919471          429.40405334003759     
   74.836902891372944          5.0789647503973239          -5.9882013478039493          437.97789063867270     
   76.285924308721178          5.0789423559949620          -5.9888773810209210          446.60414470524501     
   77.743639854573502          5.0789190352869182          -5.9895190909123439          455.28308614759317     
   79.210101693700949          5.0788947752019578          -5.9901246864196080          464.01498402458083     
   80.685362303863158          5.0788695632006053          -5.9906924404878117          472.80010587850546     
   82.169474477686336          5.0788433872743708          -5.9912206906913026          481.63871777027117     
   83.662491324552448          5.0788162359440054          -5.9917078395733343          490.53108431697376     
   85.164466272499766          5.0787880982568598          -5.9921523547260449          499.47746873156825     
   86.675453070134765          5.0787589637834154          -5.9925527686309366          508.47813286430426     
   88.195505788555579          5.0787288226130531          -5.9929076782837987          517.53333724563652     
   89.724678823286908          5.0786976653491385          -5.9932157446247141          526.64334113033567     
   91.263026896226634          5.0786654831034737          -5.9934756917921268          535.80840254254190     
   92.810605057603993          5.0786322674901951          -5.9936863062255101          545.02877832152910     
   94.367468687949611          5.0785980106191433          -5.9938464356274030          554.30472416795556     
   95.933673500077305          5.0785627050887969          -5.9939549878116294          563.63649469040820     
   97.509275541077770          5.0785263439787913          -5.9940109294459401          573.02434345205245     
   99.094331194324241          5.0784889208420880          -5.9940132847119276          582.46852301722845     
   100.68889718149019          5.0784504296968320          -5.9939611338929568          591.96928499784508     
   102.29303056457913          5.0784108650179407          -5.9938536119048154          601.52688009944029     
   103.90678874796660          5.0783702217284583          -5.9936899067820812          611.14155816679272     
   105.53022948045439          5.0783284951907230          -5.9934692581337528          620.81356822898738     
   107.16341085733713          5.0782856811973716          -5.9931909555746525          630.54315854384470     
   108.80639132248115          5.0782417759622103          -5.9928543371495611          640.33057664164824     
   110.45922967041604          5.0781967761109881          -5.9924587877525948          650.17606936810637     
   112.12198504843853          5.0781506786720909          -5.9920037375554198          660.07988292650714     
   113.79471695872917          5.0781034810671839          -5.9914886604513473          670.04226291903342     
   115.47748526048154          5.0780551811018171          -5.9909130725155979          680.06345438720757     
   117.17035017204444          5.0780057769560152          -5.9902765304997985          690.14370185146379     
   118.87337227307670          5.0779552671748851          -5.9895786303573413          700.28324934984266     
   120.58661250671516          5.0779036506592137          -5.9888190058058148          710.48234047581207     
   122.31013218175545          5.0778509266561223          -5.9879973269397517          720.74121841524482     
   124.04399297484598          5.0777970947497391          -5.9871132988801854          731.06012598256018     
   125.78825693269505          5.0777421548519399          -5.9861666604863855          741.43930565608321     
   127.54298647429123          5.0776861071931352          -5.9851571831151222          751.87899961265236     
   129.30824439313696          5.0776289523131206          -5.9840846694384382          762.37944976152869     
   131.08409385949579          5.0775706910520082          -5.9829489523244757          772.94089777766931     
   132.87059842265276          5.0775113245412147          -5.9817498937742757          783.56358513442024     
   134.66782201318867          5.0774508541945362          -5.9804873839286810          794.24775313571149     
   136.47582894526781          5.0773892816992952          -5.9791613401371375          804.99364294782629     
   138.29468391893943          5.0773266090075619          -5.9777717060940745          815.80149563083091     
   140.12445202245306          5.0772628383274583          -5.9763184510470309          826.67155216976323     
   141.96519873458777          5.0771979721145248          -5.9748015690698217          837.60405350567044     
   143.81698992699529          5.0771320130631654          -5.9732210784086153          848.59924056660486     
   145.67989186655726          5.0770649640981640          -5.9715770209057073          859.65735429870119     
   147.55397121775661          5.0769968283662479          -5.9698694614849286          870.77863569743329     
   149.43929504506315          5.0769276092277220          -5.9680984877212389          881.96332583919570     
   151.33593081533354          5.0768573102481582          -5.9662642094832474          893.21166591334065     
   153.24394640022555          5.0767859351901103          -5.9643667586486098          904.52389725480521     
   155.16341007862690          5.0767134880048790          -5.9624062888977294          915.90026137748021     
   157.09439053909867          5.0766399728243039          -5.9603829755873887          927.34100000848196     
   159.03695688233327          5.0765653939525750          -5.9582970157046491          938.84635512349485     
   160.99117862362726          5.0764897558580486          -5.9561486278970204          950.41656898335054     
   162.95712569536903          5.0764130631650701          -5.9539380525862731          962.05188417203226     
   164.93486844954126          5.0763353206457786          -5.9516655521672615          973.75254363630177     
   166.92447766023849          5.0762565332118879          -5.9493314112850548          985.51879072713996     
   168.92602452619994          5.0761767059064438          -5.9469359372058124          997.35086924323116     
   170.93958067335714          5.0760958438955193          -5.9444794602670745          1009.2490234767008     
   172.96521815739729          5.0760139524598529          -5.9419623344192978          1021.2134982613474     
   175.00300946634167          5.0759310369864181          -5.9393849378614387          1033.2445390236230     
   177.05302752313972          5.0758471029598908          -5.9367476737601796          1045.3423918366072     
   179.11534568827855          5.0757621559540169          -5.9340509710671769          1057.5073034772549     
   181.19003776240822          5.0756762016228709          -5.9312952854359944          1069.7395214872120     
   183.27717798898269          5.0755892456919502          -5.9284811002257989          1082.0392942374779     
   185.37684105691659          5.0755012939491415          -5.9256089276123536          1094.4068709972462     
   187.48910210325809          5.0754123522354977          -5.9226793097948001          1106.8425020072386     
   189.61403671587763          5.0753224264358368          -5.9196928203080548          1119.3464385578827     
   191.75172093617289          5.0752315224691182          -5.9166500654360572          1131.9189330726856     
   193.90223126178992          5.0751396462786094          -5.9135516857354480          1144.5602391971827     
   196.06564464936065          5.0750468038217846          -5.9103983576603705          1157.2706118938413     
   198.24203851725682          5.0749530010599750          -5.9071907953067297          1170.0503075433426     
   200.43149074836035          5.0748582439477108          -5.9039297522553271          1182.8995840526409     
   202.63407969285052          5.0747625384217780          -5.9006160235420655          1195.8187009702704     
   204.84988417100763          5.0746658903899133          -5.8972504477278633          1208.8079196093254     
   207.07898347603367          5.0745683057191719          -5.8938339090956591          1221.8675031786138     
   209.32145737688987          5.0744697902239082          -5.8903673399575522          1234.9977169224612     
   211.57738612115119          5.0743703496533525          -5.8868517230836748          1248.1988282696868     
   213.84685043787809          5.0742699896787764          -5.8832880942476811          1261.4711069922707     
   216.12993154050537          5.0741687158802016          -5.8796775448925604          1274.8148253742650     
   218.42671112974841          5.0740665337326476          -5.8760212249164523          1288.2302583915084     
   220.73727139652689          5.0739634485918801          -5.8723203455793369          1301.7176839027316     
   223.06169502490604          5.0738594656796501          -5.8685761825308607          1315.2773828526499     
   225.40006519505548          5.0737545900683756          -5.8647900789545080          1328.9096394876553     
   227.75246558622581          5.0736488266652700          -5.8609634488371523          1342.6147415847522     
   230.11898037974316          5.0735421801958758          -5.8570977803529551          1356.3929806943775     
   232.49969426202162          5.0734346551869800          -5.8531946393647356          1370.2446523977706     
   234.89469242759375          5.0733262559488983          -5.8492556730478835          1384.1700565795916     
   237.30406058215931          5.0732169865570844          -5.8452826136198617          1398.1694977164618     
   239.72788494565228          5.0731068508330610          -5.8412772821885790          1412.2432851821543     
   242.16625225532619          5.0729958523246372          -5.8372415927083345          1426.3917335701551     
   244.61924976885814          5.0728839942853945          -5.8331775560419086          1440.6151630343313     
   247.08696526747130          5.0727712796534075          -5.8290872841251256          1454.9138996484510     
   249.56948705907612          5.0726577110292066          -5.8249729942364405          1469.2882757853313     
   252.06690398143058          5.0725432906529182          -5.8208370133540344          1483.7386305163627     
   254.57930540531916          5.0724280203806034          -5.8166817826122497          1498.2653100322095     
   257.10678123775108          5.0723119016597460          -5.8125098618370767          1512.8686680854555     
   259.64942192517759          5.0721949355038918          -5.8083239341648794          1527.5490664559932     
   262.20731845672867          5.0720771224664016          -5.8041268107367499          1542.3068754399555     
   264.78056236746903          5.0719584626133258          -5.7999214354589022          1557.1424743629846     
   267.36924574167386          5.0718389554953625          -5.7957108898287810          1572.0562521186482     
   269.97346121612389          5.0717186001188912          -5.7914983978065910          1587.0486077327839     
   272.59330198342064          5.0715973949160817          -5.7872873307423731          1602.1199509545918     
   275.22886179532117          5.0714753377140536          -5.7830812123371960          1617.2707028752607     
   277.88023496609310          5.0713524257030826          -5.7788837236355963          1632.5012965749206     
   280.54751637588964          5.0712286554038393          -5.7746987080363130          1647.8121777986994     
   283.23080147414498          5.0711040226336648          -5.7705301763190198          1663.2038056626652     
   285.93018628298984          5.0709785224718775          -5.7663823116692852          1678.6766533904106     
   288.64576740068776          5.0708521492240948          -5.7622594746969353          1694.2312090810299     
   291.37764200509190          5.0707248963855864          -5.7581662084359806          1709.8679765092249     
   294.12590785712246          5.0705967566036563          -5.7541072433141940          1725.5874759582528     
   296.89066330426522          5.0704677216390497          -5.7500875020833808          1741.3902450864161     
