 #              _____________________  _______________________             #
 #              ___  __ \__  __ \_  / / /_  /___  ____/_  ___/             #
 #              __  / / /_  /_/ /  / / /_  __/_  __/  _____ \              #
 #              _  /_/ /_  _, _// /_/ / / /_ _  /___  ____/ /              #
 #              /_____/ /_/ |_| \____/  \__/ /_____/  /____/               #
 #                                                                         #
  
 #        time                      T            heat flux [W.L-2]   in    x              directions   cumulative flux
 #-----------------------------------------------------------------------------------------------

   0.0000000000000000          4.8296000000000001          -1.9843645105364134          0.0000000000000000     
   1.0000000000000000          4.8303580823906680          -2.2181472537202609          0.0000000000000000     
   2.0060000000000002          4.8310769097802178          -2.4328699760703412          2.4328699760703412     
   3.0180360000000004          4.8317595592203109          -2.6301751899251320          5.0788262171350240     
   4.0361442160000003          4.8324088571588444          -2.8115653348298899          7.9242315523349269     
   5.0603610812960005          4.8330273994654229          -2.9784143745432292          10.956579697709889     
   6.0907232477837763          4.8336175699143507          -3.1319784779136928          14.164404876533190     
   7.1272675872704792          4.8341815572374784          -3.2734058511677846          17.537198421136193     
   8.1700311927941023          4.8347213708517005          -3.4037457847262780          21.065331847345941     
   9.2190513799508675          4.8352388553587771          -3.5239569734783243          24.739985926720312     
   10.274365688230573          4.8357357039084805          -3.6349151654954905          28.553085313927355     
   11.336011882359955          4.8362134705098061          -3.7374201904407989          32.497238316952988     
   12.404027953654115          4.8366735813690527          -3.8322024154091796          36.565681426405575     
   13.478452121376039          4.8371173453280898          -3.9199286726433322          40.752228247115440     
   14.559322834104295          4.8375459634708857          -4.0012077004395659          45.051222500542778     
   15.646678771108920          4.8379605379615516          -4.0765951356628056          49.457494790331175     
   16.740558843735574          4.8383620801725673          -4.1465980935290743          53.966322845702074     
   17.841002196797987          4.8387515181575971          -4.2116793677557807          58.573394978382943     
   18.948048209978776          4.8391297035193110          -4.2722612817595298          63.274776508441121     
   20.061736499238648          4.8394974177189027          -4.3287292193346998          68.066878932844787     
   21.182106918234080          4.8398553778705020          -4.3814348611256770          72.946431627835409     
   22.309199559743483          4.8402042420604356          -4.4306991512334672          77.910455892345553     
   23.443054757101944          4.8405446142282589          -4.4768150164500522          82.956241154785204     
   24.583713085644554          4.8408770486436445          -4.5200498588798048          88.081323179595444     
   25.731215364158420          4.8412020540106084          -4.5606478411106179          93.283464123108146     
   26.885602656343369          4.8415200972281047          -4.5988319815787309          98.560634300472188     
   28.046916272281429          4.8418316068337228          -4.6348060763746028          103.91099553678062     
   29.215197769915118          4.8421369761551585          -4.6687564624311868          109.33288598610076     
   30.390488956534607          4.8424365661921476          -4.7008536358171975          114.82480631191005     
   31.572831890273815          4.8427307082497464          -4.7312537377203912          120.38540713151335     
   32.762268881615455          4.8430197063421927          -4.7600999196596767          126.01347763541554     
   33.958842494905149          4.8433038393850056          -4.7875235984807691          131.70793530036963     
   35.162595549874581          4.8435833631915735          -4.8136456107786012          137.46781662195505     
   36.373571123173825          4.8438585122891658          -4.8385772755536776          143.29226879910846     
   37.591812549912866          4.8441295015680996          -4.8624213731221460          149.18054230904755     
   38.817363425212342          4.8443965277766665          -4.8852730475819994          155.13198431654365     
   40.050267605763615          4.8446597708734220          -4.9072206394610856          161.14603286652283     
   41.290569211398200          4.8449193952474836          -4.9283464545622673          167.22221181355769     
   42.538312626666588          4.8451755508166636          -4.9487274744548504          173.36012644597201     
   43.793542502426590          4.8454283740124344          -4.9684360135280166          179.55945976603391     
   45.056303757441150          4.8456779886600581          -4.9875403270512964          185.81996939110650     
   46.326641579985797          4.8459245067615271          -5.0061051742415836          192.14148504366668     
   47.604601429465710          4.8461680291883908          -5.0241923399351318          198.52390660082537     
   48.890229038042506          4.8464086462909863          -5.0418611180834132          204.96720267638989     
   50.183570412270761          4.8466464384301409          -5.0591687599822324          211.47140971067228     
   51.484671834744383          4.8468814764369244          -5.0761708898050424          218.03663154511020     
   52.793579865752847          4.8471138220056798          -5.0929218897640993          224.66303946042933     
   54.110341344947365          4.8473435280251351          -5.1094752569484276          231.35087265848819     
   55.435003393017048          4.8475706388521731          -5.1258839336941922          238.10043916919875     
   56.767613413375152          4.8477951905324197          -5.1422006131065867          244.91211716494172     
   58.108219093855404          4.8480172109716451          -5.1584780211938854          251.78635666578174     
   59.456868408418536          4.8482367200616929          -5.1747691769159223          258.72368161952932     
   60.813609618869044          4.8484537297644312          -5.1911276312920505          265.72469234128107     
   62.178491276582257          4.8486682441570430          -5.2076076866050585          272.79006829755701     
   63.551562224241749          4.8488802594417768          -5.2242645966181964          279.92057122052171     
   64.932871597587194          4.8490897639231623          -5.2411547486346555          287.11704853805958     
   66.322468827172713          4.8492967379554868          -5.2583358281406900          294.38043710566853     
   67.720403640135743          4.8495011538632609          -5.2758669667131493          301.71176722627490     
   69.126726061976555          4.8497029758372330          -5.2938088737998292          309.11216694413235     
   70.541486418348413          4.8499021598084493          -5.3122239529530972          316.58286659901012     
   71.964735336858510          4.8500986533026982          -5.3311764030285929          324.12520362684012     
   73.396523748879659          4.8502923952776476          -5.3507323048624658          331.74062759297260     
   74.836902891372944          4.8504833159448353          -5.3709596938798994          339.43070544410250     
   76.285924308721178          4.8506713365786363          -5.3919286190994704          347.19712696486596     
   77.743639854573502          4.8508563693142221          -5.4137111889651219          355.04171042501423     
   79.210101693700949          4.8510383169364575          -5.4363816044279272          362.96640840297442     
   80.685362303863158          4.8512170726616324          -5.4600161797149669          370.97331377154484     
   82.169474477686336          4.8513925199138139          -5.4846933511916269          379.06466583137637     
   83.662491324552448          4.8515645320975533          -5.5104936747466784          387.24285657784355     
   85.164466272499766          4.8517329723686382          -5.5374998121207542          395.51043708685779     
   86.675453070134765          4.8518976934044584          -5.5657965066106367          403.87012400515965     
   88.195505788555579          4.8520585371755427          -5.5954705485811447          412.32480613062125     
   89.724678823286908          4.8522153347197081          -5.6266107312251874          420.87755106811579     
   91.263026896226634          4.8523679059202331          -5.6593077970265293          429.53161194657355     
   92.810605057603993          4.8525160592893766          -5.6936543753733861          438.29043418291400     
   94.367468687949611          4.8526595917584974          -5.7297449117908537          447.15766227866459     
   95.933673500077305          4.8527982884759693          -5.7676755892616800          456.13714663521836     
   97.509275541077770          4.8529319226140091          -5.8075442421089241          465.23295037385384     
   99.094331194324241          4.8530602551854702          -5.8494502629223675          474.44935614684505     
   100.68889718149019          4.8531830348715861          -5.8934945030129571          483.79087292622273     
   102.29303056457913          4.8532999978615692          -5.9397791668667148          493.26224275698530     
   103.90678874796660          4.8534108677049179          -5.9884077010998320          502.86844746186642     
   105.53022948045439          4.8535153551771932          -6.0394846784046630          512.61471528508525     
   107.16341085733713          4.8536131581599751          -6.0931156770142891          522.50652746291019     
   108.80639132248115          4.8537039615356150          -6.1494071561919927          532.54962470927228     
   110.45922967041604          4.8537874370973251          -6.2084663282681314          542.75001360512124     
   112.12198504843853          4.8538632434751072          -6.2704010277294833          553.11397288068281     
   113.79471695872917          4.8539310260779089          -6.3353195778396669          563.64805958022691     
   115.47748526048154          4.8539904170523638          -6.4033306552494302          574.35911509940490     
   117.17035017204444          4.8540410352583923          -6.4745431530118731          585.25427108562121     
   118.87337227307670          4.8540824862619161          -6.5490660423766629          596.34095519226867     
   120.58661250671516          4.8541143623448653          -6.6270082336878300          607.62689667796189     
   122.31013218175545          4.8541362425326211          -6.7084784366607773          619.12013184214516     
   124.04399297484598          4.8541476926390645          -6.7935850202673942          630.82900928863501     
   125.78825693269505          4.8541482653292833          -6.8824358723959627          642.76219500874220     
   127.54298647429123          4.8541375002000775          -6.9751382594248774          654.92867727567113     
   129.30824439313696          4.8541149238783259          -7.0717986858016735          667.33777134186835     
   131.08409385949579          4.8540800501373003          -7.1725227536807319          679.99912393090460     
   132.87059842265276          4.8540323800310219          -7.2774150226681051          692.92271751538146     
   134.66782201318867          4.8539714020467448          -7.3865788696831194          706.11887437218923     
   136.47582894526781          4.8538965922756656          -7.5001163489678992          719.59826040631845     
   138.29468391893943          4.8538074146019330          -7.6181280522480606          733.37188873424941     
   140.12445202245306          4.8537033209100908          -7.7407129690890510          747.45112301784138     
   141.96519873458777          4.8535837513110192          -7.8679683474891879          761.84768053953201     
   143.81698992699529          4.8534481343864702          -7.9999895547842037          776.57363500961310     
   145.67989186655726          4.8532958874522691          -8.1368699389621071          791.64141909634873     
   147.55397121775661          4.8531264168402446          -8.2787006905278471          807.06382666978607     
   149.43929504506315          4.8529391181989006          -8.4255707050795685          822.85401475024582     
   151.33593081533354          4.8527333768128447          -8.5775664468031767          839.02550515270900     
   153.24394640022555          4.8525085679409123          -8.7347718131177388          855.59218581861751     
   155.16341007862690          4.8522640571729232          -8.8972680007474914          872.56831182700466     
   157.09439053909867          4.8519992008049151          -9.0651333735140796          889.96850607732881     
   159.03695688233327          4.8517133462326738          -9.2384433321747590          907.80775963693395     
   160.99117862362726          4.8514058323633114          -9.4172701866590707          926.10143174668440     
   162.95712569536903          4.8510759900445697          -9.6016830310628904          944.86524947900114     
   164.93486844954126          4.8507231425114874          -9.7917476217836139          964.11530704328106     
   166.92447766023849          4.8503466058499658          -9.9875262591802496          983.86806473447950     
   168.92602452619994          4.8499456894767352          -10.189077673147830          1004.1403475214840     
   170.93958067335714          4.8495196966351459          -10.396456912999321          1024.9493432728009     
   172.96521815739729          4.8490679249060999          -10.609715242028573          1046.3126006179750     
   175.00300946634167          4.8485896667334698          -10.828900037142990          1068.2480264441356     
   177.05302752313972          4.8480842099631642          -11.054054693909187          1090.7738830279795     
   179.11534568827855          4.8475508383950459          -11.285218537366216          1113.9087848044924     
   181.19003776240822          4.8469888323467822          -11.522426738931383          1137.6716947746720     
   183.27717798898269          4.8463974692286911          -11.765710239695954          1162.0819205554756     
   185.37684105691659          4.8457760241285763          -12.015095680396616          1187.1591100761723     
   187.48910210325809          4.8451237704054977          -12.270605338315571          1212.9232469262261     
   189.61403671587763          4.8444399802914075          -12.532257071338760          1239.3946453607527     
   191.75172093617289          4.8437239254995168          -12.800064269379556          1266.5939449705122     
   193.90223126178992          4.8429748778382296          -13.074035813338584          1294.5421050242612     
   196.06564464936065          4.8421921098294680          -13.354176041753110          1323.2603984921589     
   198.24203851725682          4.8413748953301861          -13.640484725259100          1352.7704057597387     
   200.43149074836035          4.8405225101558216          -13.932957049027538          1383.0940080429027     
   202.63407969285052          4.8396342327044009          -14.231583603361967          1414.2533805154201     
   204.84988417100763          4.8387093445800025          -14.536350382687449          1446.2709851615627     
   207.07898347603367          4.8377471312141811          -14.847238793126589          1479.1695633676404     
   209.32145737688987          4.8367468824839470          -15.164225668833055          1512.9721282672942     
   211.57738612115119          4.8357078933249067          -15.487283297193969          1547.7019568564178     
   213.84685043787809          4.8346294643380858          -15.816379452914326          1583.3825818943917     
   216.12993154050537          4.8335109023890501          -16.151477440924129          1620.0377836089885     
   218.42671112974841          4.8323515211979107          -16.492536147944868          1657.6915812227585     
   220.73727139652689          4.8311506419188728          -16.839510102464764          1696.3682243189514     
   223.06169502490604          4.8299075937080520          -17.192349542807186          1736.0921840651290     
   225.40006519505548          4.8286217142783565          -17.551000492893341          1776.8881443125047     
   227.75246558622581          4.8272923504402954          -17.915404845262824          1818.7809925888180     
   230.11898037974316          4.8259188586277215          -18.285500450879628          1861.7958110022125     
   232.49969426202162          4.8245006054075263          -18.661221215214962          1905.9578670731187     
   234.89469242759375          4.8230369679724934          -19.042497200118877          1951.2926045106904     
   237.30406058215931          4.8215273346165430          -19.429254730969429          1997.8256339497957     
   239.72788494565228          4.8199711051916960          -19.821416508617990          2045.5827236640400     
   242.16625225532619          4.8183676915462117          -20.218901725672598          2094.5897902697952     
   244.61924976885814          4.8167165179436831          -20.621626185339540          2144.8728894324427     
   247.08696526747130          4.8150170214636532          -21.029502419461206          2196.4582065781951     
   249.56948705907612          4.8132686523852612          -21.442439801541045          2249.3720476045373     
   252.06690398143058          4.8114708745563144          -21.860344650649569          2303.6408295717670     
   254.57930540531916          4.8096231657508230          -22.283120323078922          2359.2910713494848     
   257.10678123775108          4.8077250180183562          -22.710667290154536          2416.3493841867289     
   259.64942192517759          4.8057759380283978          -23.142883202473257          2474.8424621737745     
   262.20731845672867          4.8037754474123311          -23.579662942592869          2534.7970725674140     
   264.78056236746903          4.8017230831048003          -24.020898669560228          2596.2400459590217     
   267.36924574167386          4.7996183976851166          -24.466479859594070          2659.1982662749742     
   269.97346121612389          4.7974609597182685          -24.916293347641513          2723.6986606108239     
   272.59330198342064          4.7952503540939100          -25.370223374506228          2789.7681889129672     
   275.22886179532117          4.7929861823607940          -25.828151643849736          2857.4338335334469     
   277.88023496609310          4.7906680630532161          -26.289957392689285          2926.7225886941960     
   280.54751637588964          4.7882956320054877          -26.755517478168848          2997.6614499059324     
   283.23080147414498          4.7858685426500864          -27.224706482422384          3070.2774033936653     
   285.93018628298984          4.7833864662950329          -27.697396836389952          3144.5974155852150     
   288.64576740068776          4.7808490923761129          -28.173458962500174          3220.6484227212022     
   291.37764200509190          4.7782561286799092          -28.652761435312346          3298.4573206448404     
   294.12590785712246          4.7756073015340688          -29.135171158468836          3378.0509548276291     
   296.89066330426522          4.7729023559618344          -29.620553555731689          3459.4561106830888     
