 #              _____________________  _______________________             #
 #              ___  __ \__  __ \_  / / /_  /___  ____/_  ___/             #
 #              __  / / /_  /_/ /  / / /_  __/_  __/  _____ \              #
 #              _  /_/ /_  _, _// /_/ / / /_ _  /___  ____/ /              #
 #              /_____/ /_/ |_| \____/  \__/ /_____/  /____/               #
 #                                                                         #
  
 #        time                      T            heat flux [W.L-2]   in    x              directions   cumulative flux
 #-----------------------------------------------------------------------------------------------

   0.0000000000000000          5.1906999999999996          -4.1881454949748944          0.0000000000000000     
   1.0000000000000000          4.8933804602607172          -81.831032525403600          0.0000000000000000     
   2.0060000000000002          4.6191854143875020          -151.16781493031422          151.16781493031422     
   3.0180360000000004          4.3659612587950241          -213.04288761750053          365.48895987351978     
   4.0361442160000003          4.1317575813605609          -268.21811470827009          636.93534781041853     
   5.0603610812960005          3.9148086435260674          -317.38040255513448          960.06294324918827     
   6.0907232477837763          3.7135164355093648          -361.14865660636093          1329.9574882244169     
   7.1272675872704792          3.5264351878647258          -400.08015668665865          1742.1849452368515     
   8.1700311927941023          3.3522572284726717          -434.67638748863061          2192.7462941967201     
   9.2190513799508675          3.1898000802111959          -465.38836166938228          2678.0363401798168     
   10.274365688230573          3.0379947008593033          -492.62147248060700          3194.8062094388642     
   11.336011882359955          2.8958747730629870          -516.73991171027728          3740.1292319259114     
   12.404027953654115          2.7625669583519326          -538.07068714040236          4311.3699291011017     
   13.478452121376039          2.6372820351623782          -556.90727190632833          4906.1558457176470     
   14.559322834104295          2.5193068465512223          -573.51291620015331          5522.3519833837709     
   15.646678771108920          2.4079969887490615          -588.12364977647007          6158.0376118900076     
   16.740558843735574          2.3027701768783109          -600.95100174807851          6811.4852514896575     
   17.841002196797987          2.2031002290489923          -612.18446223921217          7481.1416355047959     
   18.948048209978776          2.1085116146378740          -621.99370861758314          8165.6104777996543     
   20.061736499238648          2.0185745168599567          -630.53061726864212          8863.6368838353264     
   21.182106918234080          1.9329003637618083          -637.93108021385342          9574.0932572243946     
   22.309199559743483          1.8511377855133544          -644.31664431315289          10295.966565979252     
   23.443054757101944          1.7729689593595044          -649.79598933067746          11028.346844036181     
   24.583713085644554          1.6981063068274647          -654.46625978082295          11770.416814184420     
   25.731215364158420          1.6262895107825495          -658.41426420582559          12521.442528282050     
   26.885602656343369          1.5572828226976887          -661.71755436256331          13280.764929645715     
   28.046916272281429          1.4908726330626869          -664.44539571079451          14047.792250805056     
   29.215197769915118          1.4268652802214910          -666.65963959290639          14821.993167460658     
   30.390488956534607          1.3650850751018582          -668.41550657159041          15602.890636519696     
   31.572831890273815          1.3053725213040726          -669.76228954192482          16390.056352548410     
   32.762268881615455          1.2475827118554794          -670.74398445326881          17183.105762914813     
   33.958842494905149          1.1915838856268528          -671.39985575959122          17981.693587336715     
   35.162595549874581          1.1372561279556521          -671.76494305984659          18785.509792535180     
   36.373571123173825          1.0844902014402549          -671.87051478849082          19594.275977255711     
   37.591812549912866          1.0331864941678570          -671.74447426616609          20407.742127090783     
   38.817363425212342         0.98325407382598207          -671.41172291805617          21225.683702347796     
   40.050267605763615         0.93460983723193269          -670.89448500883964          22047.899025683972     
   41.290569211398200         0.88717774580405762          -670.21259782510094          22874.206939400668     
   42.538312626666588         0.84088813840085108          -669.38377085529851          23704.444705178226     
   43.793542502426590         0.79567711377563843          -668.42381717094406          24538.466121661833     
   45.056303757441150         0.75148597564244390          -667.34685989772163          25376.139837700077     
   46.326641579985797         0.70826073402862488          -666.16551637926887          26217.347841210583     
   47.604601429465710         0.66595165720763194          -664.89106237683654          27061.984105619769     
   48.890229038042506         0.62451286906604431          -663.53357841279740          27909.953377613056     
   50.183570412270761         0.58390198726764264          -662.10208015290823          28761.170091553759     
   51.484671834744383         0.54407979803822970          -660.60463452943748          29615.557397397617     
   52.793579865752847         0.50500996381230001          -659.04846313294286          30473.046290258946     
   54.110341344947365         0.46665876036031595          -657.44003424304140          31333.574830986145     
   55.435003393017048         0.42899484035679641          -655.78514472638017          32197.087448189843     
   56.767613413375152         0.39198902065787966          -654.08899290188015          33063.534313147087     
   58.108219093855404         0.35561409083548173          -652.35624335784007          33932.870779888915     
   59.456868408418536         0.31984464076635571          -650.59108460154687          34805.056883575555     
   60.813609618869044         0.28465690530076782          -648.79728032852711          35680.056890981046     
   62.178491276582257         0.25002862423945871          -646.97821501453870          36557.838897554982     
   63.551562224241749         0.21593891603112822          -645.13693445793012          37438.374466109941     
   64.932871597587194         0.18236816376781295          -643.27618183226571          38321.638302705149     
   66.322468827172713         0.14929791220395944          -641.39842974841031          39207.607965765681     
   67.720403640135743         0.11671077465833818          -639.50590877085187          40096.263604897227     
   69.126726061976555          8.4590348777652785E-002     -637.60063278435553          40987.587726233738     
   70.541486418348413          5.2921140248099796E-002     -635.68442156346839          41881.564981493349     
   71.964735336858510          2.1688493637441519E-002     -633.75892085846726          42778.181978220920     
   73.396523748879659         -9.1214703635417171E-003     -638.32655257033514          43686.679553822927     
   74.836902891372944         -3.9521911954050776E-002     -640.24405155721672          44603.373567708026     
   76.285924308721178         -6.9525324075352252E-002     -644.21921447458146          45531.293487430616     
   77.743639854573502         -9.9143579624660166E-002     -651.13407625303262          46474.800709486517     
   79.210101693700949        -0.12838797449815498          -651.70607146051941          47424.802781180864     
   80.685362303863158        -0.15726926688097409          -655.77210204045923          48386.467543987586     
   82.169474477686336        -0.18579771315777455          -656.94756443467804          49355.636408740065     
   83.662491324552448        -0.21398310077795263          -653.68502409066753          50325.778310838919     
   85.164466272499766        -0.24183477837432432          -646.32126491965153          51290.746847851777     
   86.675453070134765        -0.26936168340257094          -637.01118166963795          52247.521684281892     
   88.195505788555579        -0.28399166306527723          -628.43849912000508          53197.083959577772     
   89.724678823286908        -0.29741984756360573          -620.60516523997046          54140.436528066784     
   91.263026896226634        -0.30974403325494071          -613.53154176773626          55078.632417695146     
   92.810605057603993        -0.32108014969987958          -607.15588559000366          56012.649504266541     
   94.367468687949611        -0.33154589510885180          -601.40682889699963          56943.373578770748     
   95.933673500077305        -0.34125176752157738          -596.17718737786413          57871.540159041091     
   97.509275541077770        -0.35029711694565835          -591.41522727194774          58797.817533960013     
   99.094331194324241        -0.35876903619027761          -587.06830977256163          59722.803561044355     
   100.68889718149019        -0.36636592030903836          -582.83198154452066          60646.624688284341     
   102.29303056457913        -0.37348275885707061          -578.86735241748124          61569.666879530057     
   103.90678874796660        -0.38017035469900795          -575.14006003584518          62492.268249785331     
   105.53022948045439        -0.38647298472115482          -571.62082979613353          63414.726041663584     
   107.16341085733713        -0.39242941128293185          -568.28433956296567          64337.301986145030     
   108.80639132248115        -0.39807376007815010          -565.11009603704383          65260.229270881136     
   110.45922967041604        -0.40343626080319472          -562.07477509286707          66183.707146308938     
   112.12198504843853        -0.40854386211301419          -559.16300706466734          67107.913207132005     
   113.79471695872917        -0.41342073788517453          -556.35920185668124          68033.002462131510     
   115.47748526048154        -0.41808880005343807          -553.64957158758818          68959.109767644812     
   117.17035017204444        -0.42256772116565577          -551.02142184492629          69886.351149911978     
   118.87337227307670        -0.42687556334154120          -548.46355538593616          70814.825858095865     
   120.58661250671516        -0.43102888267943629          -545.96595916052911          71744.617952957531     
   122.31013218175545        -0.43504292294632207          -543.51969760645977          72675.797766671923     
   124.04399297484598        -0.43893177845627779          -541.11681807446996          73608.423249118467     
   125.78825693269505        -0.44270853230684143          -538.75026562145922          74542.541211946620     
   127.54298647429123        -0.44638537484342744          -536.41380538029478          75478.188479164135     
   129.30824439313696        -0.44997370618531479          -534.10195132765045          76415.392951382921     
   131.08409385949579        -0.45348422583032644          -531.80990065438073          77354.174589833638     
   132.87059842265276        -0.45692701171843719          -529.53347318000954          78294.546325599484     
   134.66782201318867        -0.46031159064106414          -527.26905539820768          79236.514899079848     
   136.47582894526781        -0.46364700150221205          -525.01354882861654          80180.081634385613     
   138.29468391893943        -0.46694169538352742          -522.76421841978231          81125.242965131503     
   140.12445202245306        -0.47020398845082112          -520.51982088123054          82071.993030235986     
   141.96519873458777        -0.47344177790623848          -518.27766277042008          83020.320966336891     
   143.81698992699529        -0.47666267524481565          -516.03626607003844          83970.213026447585     
   145.67989186655726        -0.47987404810094153          -513.79446579652347          84921.653092917317     
   147.55397121775661        -0.48308305971590854          -511.55137939493630          85874.623149777748     
   149.43929504506315        -0.48629670646692608          -509.30637899552687          86829.103718087368     
   151.33593081533354        -0.48952185385037134          -507.05906638384431          87785.074257792643     
   153.24394640022555        -0.49276527127508146          -504.80925054847290          88742.513539546257     
   155.16341007862690        -0.49603366599280807          -502.55692768276191          89701.399989860409     
   157.09439053909867        -0.49933371647082481          -500.30226352913883          90661.712012926568     
   159.03695688233327        -0.50267210549475638          -498.04557796657190          91623.428292404380     
   160.99117862362726        -0.50605555327700935          -495.78733175322395          92586.528076470277     
   162.95712569536903        -0.50949085083696255          -493.52811534723509          93550.991449421694     
   164.93486844954126        -0.51298489391269986          -491.26863973861327          94516.799593154385     
   166.92447766023849        -0.51654471766011256          -489.00972923437297          95483.935041867386     
   168.92602452619994        -0.52017753239321818          -486.75231614709344          96452.381933401863     
   170.93958067335714        -0.52388927345359970          -484.49812913065369          97422.127645327506     
   172.96521815739729        -0.52768895201768617          -482.24757391262938          98393.160212230927     
   175.00300946634167        -0.53158452122140776          -480.00189265033617          99365.470038393658     
   177.05302752313972        -0.53558426701607698          -477.76243211373469          100339.05017029516     
   179.11534568827855        -0.53969685292832781          -475.52955655033418          101313.89434776451     
   181.19003776240822        -0.54393136741544690          -473.30701062255810          102290.00399345897     
   183.27717798898269        -0.54829737408056156          -471.09539923395835          103267.38188440862     
   185.37684105691659        -0.55280496501043774          -468.89654081273738          104246.03471684050     
   187.48910210325809        -0.55746481749357257          -466.71239323995229          105225.97349227346     
   189.61403671587763        -0.56228825436639984          -464.54506558900903          106207.21393858729     
   191.75172093617289        -0.56728730821908258          -462.39683131899125          107189.77697022261     
   193.90223126178992        -0.57247478966723520          -460.27014283239481          108173.68919162847     
   196.06564464936065        -0.57786435985943385          -458.16764728507064          109158.98344797868     
   198.24203851725682        -0.58346835234169814          -456.09239871885234          110145.69984933629     
   200.43149074836035        -0.58930442428055030          -454.04723379589274          111133.88546470489     
   202.63407969285052        -0.59538924994962383          -452.03548695224418          112123.59557015046     
   204.84988417100763        -0.60174068604226483          -450.06075926155415          113114.89442284881     
   207.07898347603367        -0.60837786524872350          -448.12693762915535          114107.85609803032     
   209.32145737688987        -0.61532129320182416          -446.23739295851533          115102.56356055077     
   211.57738612115119        -0.62259294802179976          -444.39828574697248          116099.11511792359     
   213.84685043787809        -0.63021638137127056          -442.61364657002918          117097.61996582325     
   216.12993154050537        -0.63821681953234011          -440.88868578257745          118098.20110585543     
   218.42671112974841        -0.64662126252373353          -439.22898180124304          119100.99649393206     
   220.73727139652689        -0.65545590872941728          -437.64030308231355          120106.15980948166     
   223.06169502490604        -0.66475401480983198          -436.12911235684658          121113.86240767875     
   225.40006519505548        -0.67454841347382255          -434.70212575761445          122124.29430009640     
   227.75246558622581        -0.68487402270648479          -433.36582964261146          123137.66402889474     
   230.11898037974316        -0.69576787910812177          -432.12888145917555          124154.20417867530     
   232.49969426202162        -0.70726913949588976          -430.99844835365184          125174.16838268723     
   234.89469242759375        -0.71941904124688749          -429.98259699771955          126197.83392049784     
   237.30406058215931        -0.73225804795732607          -429.08922825730770          127225.50183504085     
   239.72788494565228        -0.74583373843790757          -428.32716201493457          128257.49965893508     
   242.16625225532619        -0.76019274470488496          -427.70449511669602          129294.18023457438     
   244.61924976885814        -0.77380925083659713          -428.13237342819087          130338.12421815479     
   247.08696526747130        -0.78767094767269419          -428.82326230720633          131390.02661433903     
   249.56948705907612        -0.80165712662782462          -429.77677763934463          132450.59342946365     
   252.06690398143058        -0.81563545133967119          -430.98462576494131          133520.52215477178     
   254.57930540531916        -0.82946679292619074          -432.43028694532256          134600.48087112763     
   257.10678123775108        -0.84301916164214574          -434.09343973884700          135691.09784722820     
   259.64942192517759        -0.85617890790290152          -435.95129067407584          136792.95419852441     
   262.20731845672867        -0.86885759043418986          -437.98314111629747          137906.58795353357     
   264.78056236746903        -0.88099749044110798          -440.17312714382911          139032.50526873674     
   267.36924574167386        -0.89245092165787554          -442.07893642883607          140170.08219996883     
   269.97346121612389        -0.90328958843231844          -444.02288643854416          141319.51686385873     
   272.59330198342064        -0.91351962321925284          -445.98701125071852          142480.96313996159     
   275.22886179532117        -0.92316114499256241          -447.95659824037574          143654.53809801128     
   277.88023496609310        -0.93224344166026363          -449.92049409120574          144840.33047078850     
   280.54751637588964        -0.94080091143478040          -451.86992693361009          146038.40627173893     
   283.23080147414498        -0.94887099268379538          -453.79800935332912          147248.81326588974     
   285.93018628298984        -0.95649141613765409          -455.69901447832456          148471.58364072908     
   288.64576740068776        -0.96369921694142513          -457.56805804179538          149706.73590561975     
   291.37764200509190        -0.97052992505794422          -459.40085966658688          150954.27620558452     
   294.12590785712246        -0.97701722234521649          -461.19370158143607          152214.19956664598     
   296.89066330426522        -0.98319265866639327          -462.94265503968040          153486.48905693990     
