 #              _____________________  _______________________             #
 #              ___  __ \__  __ \_  / / /_  /___  ____/_  ___/             #
 #              __  / / /_  /_/ /  / / /_  __/_  __/  _____ \              #
 #              _  /_/ /_  _, _// /_/ / / /_ _  /___  ____/ /              #
 #              /_____/ /_/ |_| \____/  \__/ /_____/  /____/               #
 #                                                                         #
  
 #        time                      T            heat flux [W.L-2]   in    x              directions   cumulative flux
 #-----------------------------------------------------------------------------------------------

   0.0000000000000000          278.22930000000002          -10.200017252469030          0.0000000000000000     
   1.0000000000000000          278.22930066504244          -10.200396222477679          0.0000000000000000     
   2.0060000000000002          278.22930129885816          -10.200742737006403          10.200742737006403     
   3.0180360000000004          278.22930190367822          -10.201060796100217          20.463009897883222     
   4.0361442160000003          278.22930248132502          -10.201354656382865          30.787148058910311     
   5.0603610812960005          278.22930303314956          -10.201628870171227          41.173510228214433     
   6.0907232477837763          278.22930355996544          -10.201888293935713          51.622456276729224     
   7.1272675872704792          278.22930406198134          -10.202138073545425          62.134353364994915     
   8.1700311927941023          278.22930453873471          -10.202383610858393          72.709576346102082     
   9.2190513799508675          278.22930498902917          -10.202630517435127          83.348508130288081     
   10.274365688230573          278.22930541087601          -10.202884558148003          94.051539999015361     
   11.336011882359955          278.22930580144208          -10.203151588926044          104.81907186035582     
   12.404027953654115          278.22930615700415          -10.203437491424111          115.65151244016329     
   13.478452121376039          278.22930647290991          -10.203748105921866          126.54927940472518     
   14.559322834104295          278.22930674354882          -10.204089166926197          137.51279941526016     
   15.646678771108920          278.22930696232811          -10.204466239005512          148.54250811202547     
   16.740558843735574          278.22930712165868          -10.204884658041488          159.63885003139430     
   17.841002196797987          278.22930721294796          -10.205349476667791          170.80227845811203     
   18.948048209978776          278.22930722660044          -10.205865414700652          182.03325521596892     
   20.061736499238648          278.22930715202529          -10.206436815435454          193.33225040127834     
   21.182106918234080          278.22930697765082          -10.207067607901251          204.69974206388176     
   22.309199559743483          278.22930669094546          -10.207761275498127          216.13621584111692     
   23.443054757101944          278.22930627844465          -10.208520830709224          227.64216455010475     
   24.583713085644554          278.22930572578173          -10.209348794915941          239.21808774286552     
   25.731215364158420          278.22930501772612          -10.210247185489246          250.86449123147258     
   26.885602656343369          278.22930413822269          -10.211217506770515          262.58188658689244     
   28.046916272281429          278.22930307043765          -10.212260747845164          274.37079061868405     
   29.215197769915118          278.22930179680492          -10.213377383532981          286.23172483889476     
   30.390488956534607          278.22930029907695          -10.214567381023242          298.16521491647683     
   31.572831890273815          278.22929855837691          -10.215830209767750          310.17179012601798     
   32.762268881615455          278.22929655525223          -10.217164855416412          322.25198279566814     
   33.958842494905149          278.22929426972951          -10.218569836486644          334.40632775779329     
   35.162595549874581          278.22929168137068          -10.220043224565311          346.63536180698827     
   36.373571123173825          278.22928876932781          -10.221582665777232          358.93962316754016     
   37.591812549912866          278.22928551239966          -10.223185405240828          371.31965097459619     
   38.817363425212342          278.22928188908645          -10.224848312417484          383.77598477090595     
   40.050267605763615          278.22927787764490          -10.226567908322124          396.30916402225967     
   41.290569211398200          278.22927345614124          -10.228340393067784          408.91972765297442     
   42.538312626666588          278.22926860250396          -10.230161674498907          421.60821360375678     
   43.793542502426590          278.22926329457385          -10.232027396806101          434.37515841296738     
   45.056303757441150          278.22925751015362          -10.233932969411956          447.22109682269854     
   46.326641579985797          278.22925122705516          -10.235873596250016          460.14656141126960     
   47.604601429465710          278.22924442314422          -10.237844303222413          473.15208225097626     
   48.890229038042506          278.22923707638392          -10.239839966723750          486.23818659354896     
   50.183570412270761          278.22922916487596          -10.241855340902575          499.40539858286303     
   51.484671834744383          278.22922066689875          -10.243885083287001          512.65423899391772     
   52.793579865752847          278.22921156094412          -10.245923780647274          525.98522499947421     
   54.110341344947365          278.22920182575166          -10.247965973260669          539.39886996337657     
   55.435003393017048          278.22919144034034          -10.250006178112034          552.89568326022027     
   56.767613413375152          278.22918038403765          -10.252038910587434          566.47617012040917     
   58.108219093855404          278.22916863650693          -10.254058705351873          580.14083150050135     
   59.456868408418536          278.22915617777255          -10.256060135633351          593.89016397767853     
   60.813609618869044          278.22914298824247          -10.258037831554237          607.72465966796688     
   62.178491276582257          278.22912904872823          -10.259986496604213          621.64480616657556     
   63.551562224241749          278.22911434046375          -10.261900923407689          635.65108651020500     
   64.932871597587194          278.22909884512148          -10.263776007557613          649.74397915946690     
   66.322468827172713          278.22908254482667          -10.265606760774563          663.92395800120323     
   67.720403640135743          278.22906542216992          -10.267388322376503          678.19149236905639     
   69.126726061976555          278.22904746021737          -10.269115969504943          692.54704708118197     
   70.541486418348413          278.22902864251995          -10.270785126533806          706.99108249453559     
   71.964735336858510          278.22900895312023          -10.272391372937989          721.52405457410453     
   73.396523748879659          278.22898837655788          -10.273930450174356          736.14641497616310     
   74.836902891372944          278.22896689787416          -10.275398267702261          750.85861114476143     
   76.285924308721178          278.22894450261435          -10.276790907863640          765.66108642021277     
   77.743639854573502          278.22892117682926          -10.278104629678660          780.55428015836321     
   79.210101693700949          278.22889690707535          -10.279335871965520          795.53862785996489     
   80.685362303863158          278.22887168041353          -10.280481255299375          810.61456130872637     
   82.169474477686336          278.22884548440743          -10.281537583784480          825.78250871798593     
   83.662491324552448          278.22881830712009          -10.282501845482564          841.04289488422592     
   85.164466272499766          278.22879013711031          -10.283371212243839          856.39614134668398     
   86.675453070134765          278.22876096342770          -10.284143039512671          871.84266655313877     
   88.195505788555579          278.22873077560729          -10.284814864830805          887.38288603001831     
   89.724678823286908          278.22869956366344          -10.285384406144971          903.01721255658197     
   91.263026896226634          278.22866731808284          -10.285849559699999          918.74605634257841     
   92.810605057603993          278.22863402981739          -10.286208397210128          934.56982520828296     
   94.367468687949611          278.22859969027593          -10.286459162997332          950.48892476683773     
   95.933673500077305          278.22856429131667          -10.286600270737582          966.50375860825250     
   97.509275541077770          278.22852782523802          -10.286630299630618          982.61472848411256     
   99.094331194324241          278.22849028476975          -10.286547990493913          998.82223449278399     
   100.68889718149019          278.22845166306394          -10.286352241843842          1015.1266752650031     
   102.29303056457913          278.22841195368494          -10.286042105220465          1031.5284481485444     
   103.90678874796660          278.22837115060037          -10.285616780994067          1048.0279493925968     
   105.53022948045439          278.22832924817112          -10.285075613773261          1064.6255743310824     
   107.16341085733713          278.22828624114095          -10.284418087444671          1081.3217175641744     
   108.80639132248115          278.22824212462706          -10.283643820805231          1098.1167731388086     
   110.45922967041604          278.22819689410943          -10.282752562265124          1115.0111347265199     
   112.12198504843853          278.22815054542133          -10.281744185414517          1132.0051957998296     
   113.79471695872917          278.22810307473827          -10.280618683650815          1149.0993498054686     
   115.47748526048154          278.22805447856911          -10.279376166217155          1166.2939903365809     
   117.17035017204444          278.22800475374470          -10.278016852368230          1183.5895113006229     
   118.87337227307670          278.22795389740901          -10.276541067687134          1200.9863070863455     
   120.58661250671516          278.22790190700823          -10.274949238350553          1218.4847727262411     
   122.31013218175545          278.22784878028165          -10.273241887311487          1236.0853040574830     
   124.04399297484598          278.22779451525139          -10.271419629461521          1253.7882978794551     
   125.78825693269505          278.22773911021318          -10.269483167396480          1271.5941521087070     
   127.54298647429123          278.22768256372638          -10.267433286892009          1289.5032659306526     
   129.30824439313696          278.22762487460477          -10.265270852977435          1307.5160399488582     
   131.08409385949579          278.22756604190732          -10.262996805799677          1325.6328763313848     
   132.87059842265276          278.22750606492917          -10.260612156872162          1343.8541789546809     
   134.66782201318867          278.22744494319204          -10.258117985133271          1362.1803535445242     
   136.47582894526781          278.22738267643615          -10.255515433494498          1380.6118078147058     
   138.29468391893943          278.22731926461097          -10.252805705513660          1399.1489516035349     
   140.12445202245306          278.22725470786668          -10.249990062006850          1417.7921970079005     
   141.96519873458777          278.22718900654581          -10.247069818068921          1436.5419585154802     
   143.81698992699529          278.22712216117469          -10.244046340131328          1455.3986531350326     
   145.67989186655726          278.22705417245550          -10.240921043222519          1474.3627005250130     
   147.55397121775661          278.22698504125799          -10.237695388788520          1493.4345231214318     
   149.43929504506315          278.22691476861149          -10.234370881841995          1512.6145462636077     
   151.33593081533354          278.22684335569755          -10.230949069559129          1531.9031983204072     
   153.24394640022555          278.22677080384102          -10.227431538437855          1551.3009108141998     
   155.16341007862690          278.22669711450351          -10.223819913585263          1570.8081185464498     
   157.09439053909867          278.22662228927516          -10.220115856469420          1590.4252597219966     
   159.03695688233327          278.22654632986723          -10.216321064109255          1610.1527760746976     
   160.99117862362726          278.22646923810493          -10.212437267823256          1629.9911129935656     
   162.95712569536903          278.22639101591915          -10.208466232385819          1649.9407196501595     
   164.93486844954126          278.22631166534023          -10.204409755590754          1670.0020491280163     
   166.92447766023849          278.22623118848952          -10.200269667877770          1690.1755585542642     
   168.92602452619994          278.22614958757254          -10.196047831786823          1710.4617092330968     
   170.93958067335714          278.22606686487143          -10.191746142688050          1730.8609667836686     
   172.96521815739729          278.22598302273781          -10.187366528902192          1751.3738012812830     
   175.00300946634167          278.22589806358496          -10.182910952232275          1772.0006874027677     
   177.05302752313972          278.22581198988036          -10.178381408722078          1792.7421045765825     
   179.11534568827855          278.22572480413834          -10.173779930063821          1813.5985371391030     
   181.19003776240822          278.22563650891249          -10.169108585087761          1834.5704744973987     
   183.27717798898269          278.22554710678719          -10.164369480882064          1855.6584112979101     
   185.37684105691659          278.22545660037031          -10.159564765050950          1876.8628476035362     
   187.48910210325809          278.22536499228517          -10.154696628020110          1898.1842890794628     
   189.61403671587763          278.22527228516213          -10.149767305488961          1919.6232471882777     
   191.75172093617289          278.22517848162988          -10.144779081012231          1941.1802393948992     
   193.90223126178992          278.22508358430736          -10.139734289028009          1962.8557893825412     
   196.06564464936065          278.22498759579452          -10.134635318576604          1984.6504272815032     
   198.24203851725682          278.22489051866313          -10.129484616511741          2006.5646899100566     
   200.43149074836035          278.22479235544785          -10.124284691626537          2028.5991210297475     
   202.63407969285052          278.22469310863602          -10.119038118956615          2050.7542716159187     
   204.84988417100763          278.22459278065764          -10.113747543855338          2073.0307001433789     
   207.07898347603367          278.22449137387548          -10.108415687560882          2095.4289728909498     
   209.32145737688987          278.22438889057383          -10.103045351829552          2117.9496642633599     
   211.57738612115119          278.22428533294743          -10.097639424283601          2140.5933571325727     
   213.84685043787809          278.22418070309027          -10.092200884370301          2163.3606432004835     
   216.12993154050537          278.22407500298311          -10.086732809560488          2186.2521233841394     
   218.42671112974841          278.22396823448128          -10.081238381246036          2209.2684082234427     
   220.73727139652689          278.22386039930160          -10.075720891727318          2232.4101183144717     
   223.06169502490604          278.22375149900876          -10.070183750906617          2255.6778847684750     
   225.40006519505548          278.22364153500149          -10.064630493685133          2279.0723496989021     
   227.75246558622581          278.22353050849790          -10.059064787445346          2302.5941667374650     
   230.11898037974316          278.22341842052026          -10.053490439896100          2326.2440015809038     
   232.49969426202162          278.22330527187876          -10.047911406785852          2350.0225325690144     
   234.89469242759375          278.22319106315598          -10.042331800863677          2373.9304512977769     
   237.30406058215931          278.22307579468878          -10.036755900057450          2397.9684632667099     
   239.72788494565228          278.22295946655100          -10.031188156411099          2422.1372885632222     
   242.16625225532619          278.22284207853500          -10.025633205513296          2446.4376625861892     
   244.61924976885814          278.22272363013195          -10.020095875376491          2470.8703368085057     
   247.08696526747130          278.22260412051207          -10.014581196199702          2495.4360795818475     
   249.56948705907612          278.22248354850404          -10.009094410532477          2520.1356769858007     
   252.06690398143058          278.22236191257304          -10.003640982773289          2544.9699337209267     
   254.57930540531916          278.22223921079876          -9.9982266097266166          2569.9396740495927     
   257.10678123775108          278.22211544085172          -9.9928572306765933          2595.0457427846600     
   259.64942192517759          278.22199059996950          -9.9875390381968110          2620.2890063291729     
   262.20731845672867          278.22186468493197          -9.9822784887892038          2645.6703537679909     
   264.78056236746903          278.22173769203511          -9.9770823133160107          2671.1906980122217     
   267.36924574167386          278.22160961706436          -9.9719575284416191          2696.8509770004457     
   269.97346121612389          278.22148045526751          -9.9669114473108440          2722.6521549562708     
   272.59330198342064          278.22135020132572          -9.9619516904893661          2748.5952237043671     
   275.22886179532117          278.22121884932437          -9.9570861975272269          2774.6812040481368     
   277.88023496609310          278.22108639272301          -9.9523232377091819          2800.9111472084869     
   280.54751637588964          278.22095282432355          -9.9476714213131476          2827.2861363266111     
   283.23080147414498          278.22081813623862          -9.9431397107886408          2853.8072880322075     
   285.93018628298984          278.22068231985799          -9.9387374315017265          2880.4757540776286     
   288.64576740068776          278.22054536581533          -9.9344742832935680          2907.2927230418113     
   291.37764200509190          278.22040726395267          -9.9303603509832854          2934.2594221028776     
   294.12590785712246          278.22026800328490          -9.9264061154094705          2961.3771188825667     
   296.89066330426522          278.22012757196296          -9.9226224638492475          2988.6471233625548     
