 #              _____________________  _______________________             #
 #              ___  __ \__  __ \_  / / /_  /___  ____/_  ___/             #
 #              __  / / /_  /_/ /  / / /_  __/_  __/  _____ \              #
 #              _  /_/ /_  _, _// /_/ / / /_ _  /___  ____/ /              #
 #              /_____/ /_/ |_| \____/  \__/ /_____/  /____/               #
 #                                                                         #
  
 #        time                      T            heat flux [W.L-2]   in    x              directions   cumulative flux
 #-----------------------------------------------------------------------------------------------

   0.0000000000000000          277.73919999999998          -11.812938027026382          0.0000000000000000     
   1.0000000000000000          277.47783151416360          -146.04117293556979          0.0000000000000000     
   2.0060000000000002          277.23657439590966          -263.13219336996440          263.13219336996440     
   3.0180360000000004          277.01358934883791          -365.11575242139264          630.43864030588543     
   4.0361442160000003          276.80719817300576          -453.77748574597979          1089.6777918703037     
   5.0603610812960005          276.61587251503522          -530.69056257245620          1629.9782137789834     
   6.0907232477837763          276.43822274715541          -597.24267333040268          2241.6842324784516     
   7.1272675872704792          276.27298715450326          -654.65914937952209          2916.2202519441807     
   8.1700311927941023          276.11902155640900          -704.02285701079188          3645.9711592479734     
   9.2190513799508675          275.97528944557865          -746.29138671469900          4424.1766564298177     
   10.274365688230573          275.84085269675603          -782.31196252787367          5244.8376977757835     
   11.336011882359955          275.71486287172155          -812.83441959896606          6102.6334910408023     
   12.404027953654115          275.59655312882853          -838.52253674366125          6992.8477508664264     
   13.478452121376039          275.48523073143338          -859.96396143449624          7911.3030824122588     
   14.559322834104295          275.38027013954547          -877.67892485092887          8854.3025307722910     
   15.646678771108920          275.28110666196301          -892.12791234325698          9818.5774632315188     
   16.740558843735574          275.18723064143876          -903.71842838053465          10801.241061711582     
   17.841002196797987          275.09818214247957          -912.81097356107841          11799.746795764981     
   18.948048209978776          275.01354610982321          -919.72433359932438          12811.851325324114     
   20.061736499238648          274.93294796510577          -924.74026561822006          13835.581349604508     
   21.182106918234080          274.85604960947029          -928.10765497459795          14869.203976122160     
   22.309199559743483          274.78254580066266          -930.04620574938679          15911.200233342712     
   23.443054757101944          274.71216087434721          -930.74971957337311          16960.241393360800     
   24.583713085644554          274.64464578082800          -930.38901032225738          18015.167808279886     
   25.731215364158420          274.57977540997723          -929.11449617611333          19074.969996512842     
   26.885602656343369          274.51734617888081          -927.05850538732966          20138.771743760462     
   28.046916272281429          274.45717385845256          -924.33732769505275          21205.815008543828     
   29.215197769915118          274.39909161699995          -921.05303953347288          22275.446444355188     
   30.390488956534607          274.34294826041571          -917.29512790212516          23347.105370152767     
   31.572831890273815          274.28860665030248          -913.14193492014579          24420.313038397082     
   32.762268881615455          274.23594228289096          -908.66194260168436          25494.663065389926     
   33.958842494905149          274.18484201308155          -903.91491521750436          26569.812902575071     
   35.162595549874581          274.13520290931825          -898.95291469470840          27645.476239888620     
   36.373571123173825          274.08693122628819          -893.82120282235292          28721.416243382479     
   37.591812549912866          274.03994148363563          -888.55904254058623          29797.439539333296     
   38.817363425212342          273.99415563997837          -883.20040926985052          30873.390866018704     
   40.050267605763615          273.94950235253350          -877.77462206305813          31949.148322403755     
   41.290569211398200          273.90591631358603          -872.30690331889537          33024.619150229359     
   42.538312626666588          273.86333765589188          -866.81887486193659          34099.735992514979     
   43.793542502426590          273.82171141987976          -861.32899736489026          35174.453577356748     
   45.056303757441150          273.78098707622695          -855.85295934393378          36248.745781182864     
   46.326641579985797          273.74111809802906          -850.40402129375491          37322.603030381193     
   47.604601429465710          273.70206157736743          -844.99331993342321          38396.030004490189     
   48.890229038042506          273.66377788160571          -839.63013700226804          39469.043607992404     
   50.183570412270761          273.62623034522835          -834.32213656778117          40541.671181210724     
   51.484671834744383          273.58938499346482          -829.07557437898299          41613.948923917116     
   52.793579865752847          273.55321029433458          -823.89548241843886          42685.920508061339     
   54.110341344947365          273.51767693609730          -818.78583146167966          43757.635858537476     
   55.435003393017048          273.48275762741309          -813.74967414670846          44829.150083160952     
   56.767613413375152          273.44842691779672          -808.78927078223660          45900.522535052136     
   58.108219093855404          273.41466103621156          -803.90619987748528          46971.815992436874     
   59.456868408418536          273.38143774587320          -799.10145515667284          48043.095942499946     
   60.813609618869044          273.34873621354143          -794.37553062600307          49114.429957384433     
   62.178491276582257          273.31653689176369          -789.72849508468971          50185.887151732895     
   63.551562224241749          273.28482141269569          -785.16005731667633          51257.537712333484     
   64.932871597587194          273.25357249227625          -780.66962305889137          52329.452491475939     
   66.322468827172713          273.22277384366231          -776.25634471844774          53401.702656554407     
   67.720403640135743          273.19241009895086          -771.91916470008243          54474.359389285615     
   69.126726061976555          273.16246673831751          -767.65685310673018          55547.493628653167     
   70.541486418348413          273.13293002579741          -5671.3913653584741          63523.298468791181     
   71.964735336858510          273.10378695101826          -6905.8594909916810          73293.434703320556     
   73.396523748879659          273.07502517626773          -7272.0316461952352          83643.345879139073     
   74.836902891372944          273.04663298834799          -8149.1773893100699          95311.243632658006     
   76.285924308721178          273.01859925472610          -8948.2809113892890          108200.16081859388     
   77.743639854573502          272.99091338354509          -9590.7108762148237          122097.30628582384     
   79.210101693700949          272.96356528710493          -9994.0086531018278          136665.72806483306     
   80.685362303863158          272.93654534846667          -10086.223490066104          151456.78991392581     
   82.169474477686336          272.90984439086947          -9830.2216478498667          165958.92870016253     
   83.662491324552448          272.90190763501244          -9671.2764419188115          180312.18780402356     
   85.164466272499766          272.89379166139031          -9483.3261735958185          194470.95354552852     
   86.675453070134765          272.88574748793343          -9269.7402546218818          208393.87118194936     
   88.195505788555579          272.87783029558534          -9033.8599789618656          222043.91434184392     
   89.724678823286908          272.87007853026034          -8779.6092391134171          235389.38323243073     
   91.263026896226634          272.86252074709131          -8511.2215234280284          248404.51367868180     
   92.810605057603993          272.85517744231913          -8232.9691958077765          261069.68597562477     
   94.367468687949611          272.84771572558350          -7919.0820578228522          273325.08442646672     
   95.933673500077305          272.84044239265290          -7598.4692846412809          285154.86490202305     
   97.509275541077770          272.83335924707626          -7274.5874396669060          296548.35875627305     
   99.094331194324241          272.82646491430000          -6950.4970288990271          307499.57606097404     
   100.68889718149019          272.81975557814155          -6628.8346461547426          318006.64789129765     
   102.29303056457913          272.81322557466046          -6311.8126664209458          328071.24968653568     
   103.90678874796660          272.80686786695543          -6001.2385529999801          337698.03678928333     
   105.53022948045439          272.80067442184594          -5698.5469703837616          346894.11359615804     
   107.16341085733713          272.79463650659267          -5404.8392094955943          355668.54972140037     
   108.80639132248115          272.78874492105541          -5127.4007091017902          364042.52507132071     
   110.45922967041604          272.78299017814015          -4853.6482232470780          372016.97428679664     
   112.12198504843853          272.77736264313353          -4590.5963300471012          379604.48794098763     
   113.79471695872917          272.77185264057556          -4338.4318779546265          386818.23887824093     
   115.47748526048154          272.76645053568592          -4097.2047835533822          393671.76406268607     
   117.17035017204444          272.76114679599556          -3866.8572649713692          400178.78889558074     
   118.87337227307670          272.75593203772036          -3647.2488695070533          406353.08853050665     
   120.58661250671516          272.75079706050309          -3438.1775002212476          412208.38080065529     
   122.31013218175545          272.74573287341730          -3239.3967590432189          417758.24566096615     
   124.04399297484598          272.74073271842849          -3050.7282350349087          423016.23579724977     
   125.78825693269505          272.73578608110250          -2871.7664484492088          427995.47904912871     
   127.54298647429123          272.73088469336398          -2702.2052289948765          432708.83823677577     
   129.30824439313696          272.72602055227458          -2541.7344024663616          437168.89467967476     
   131.08409385949579          272.72118592855395          -2390.0444175631064          441387.93951417110     
   132.87059842265276          272.71637337456212          -2246.8294730749940          445377.97043493058     
   134.66782201318867          272.71157573220938          -2111.7894248024063          449150.69187876675     
   136.47582894526781          272.70678614110165          -1984.6307213673772          452717.51702971052     
   138.29468391893943          272.70199804708733          -1865.0665899741209          456089.57035317289     
   140.12445202245306          272.69720521124566          -1752.8166676908659          459277.68966713693     
   141.96519873458777          272.69240171923832          -1647.6062504205102          462292.42703130608     
   143.81698992699529          272.68758199083942          -1549.1653103160345          465144.04798282351     
   145.67989186655726          272.68274078935883          -1457.2274121971075          467842.52887006494     
   147.55397121775661          272.67787323058587          -1371.5286401804456          470397.55223402189     
   149.43929504506315          272.67297479080412          -1291.8066267501654          472818.50035895687     
   151.33593081533354          272.66804131336534          -1217.7997575942106          475114.44725883735     
   153.24394640022555          272.66306901327152          -1149.2466066498346          477294.14948187128     
   155.16341007862690          272.65805447918990          -1085.8856369719792          479366.03620062419     
   157.09439053909867          272.65299467233496          -1027.4551846897814          481338.19910882140     
   159.03695688233327          272.64788692168116          -974.68059843678816          483220.28829960374     
   160.99117862362726          272.64272891503174          -925.24274784172269          485017.63372088294     
   162.95712569536903          272.63751868556068          -879.95907876476804          486737.26888405409     
   164.93486844954126          272.63225459355573          -838.57247119099827          488385.85797823529     
   166.92447766023849          272.62693530322827          -800.82928892467396          489969.69230173493     
   168.92602452619994          272.62156291473161          -766.49900444809680          491494.72578097513     
   170.93958067335714          272.61613343677925          -735.31592016550019          492966.49505647394     
   172.96521815739729          272.61064625587721          -707.04475534239316          494390.16936990886     
   175.00300946634167          272.60510092360340          -681.45844569717735          495770.55714132881     
   177.05302752313972          272.59949711211613          -658.33917279872207          497112.11498599569     
   179.11534568827855          272.59383456697350          -637.47924797788505          498418.95895518438     
   181.19003776240822          272.58811305800975          -618.68182698197290          499694.87772541057     
   183.27717798898269          272.58233232903535          -601.76144154701274          500943.34741870500     
   185.37684105691659          272.57649204711936          -586.54434354891566          502167.54771279567     
   187.48910210325809          272.57059175216096          -572.86866585250391          503370.37889326271     
   189.61403671587763          272.56463080737956          -560.58441105151485          504554.47950791311     
   191.75172093617289          272.55860835124281          -549.55328474290661          505722.24430414208     
   193.90223126178992          272.55252325122939          -539.64839375543283          506875.84215998073     
   196.06564464936065          272.54637405967992          -530.75383191308242          508017.23375587061     
   198.24203851725682          272.54015897184888          -522.76417663978384          509148.18877415551     
   200.43149074836035          272.53387579403062          -515.58431261892031          510270.30331052281     
   202.63407969285052          272.52752206167685          -509.13600987342261          511385.03228327533     
   204.84988417100763          272.52109483545354          -503.34030266744725          512493.68406924699     
   207.07898347603367          272.51459064795426          -498.12620952376471          513597.43435499718     
   209.32145737688987          272.50800547361922          -493.43030664931945          514697.33950862795     
   211.57738612115119          272.50133469875806          -489.23234078990777          515794.43026430410     
   213.84685043787809          272.49457309061467          -485.40398991646862          516889.46707773581     
   216.12993154050537          272.48771824068808          -481.94372116029689          517983.22115557967     
   218.42671112974841          272.48076022922851          -478.81121576705459          519076.38599402341     
   220.73727139652689          272.47369178051963          -475.97171921891010          520169.58812378231     
   223.06169502490604          272.46942554241150          -475.16910189359328          521267.49497061846     
   225.40006519505548          272.46516518454689          -474.44704765896932          522370.31089861167     
   227.75246558622581          272.46091760716246          -473.80594690153691          523478.24459128565     
   230.11898037974316          272.45668996060414          -473.24585611720693          524591.50832833548     
   232.49969426202162          272.45248964665160          -472.76661568377727          525710.31751823227     
   234.89469242759375          272.44832456941680          -472.37682940775215          526834.91159367003     
   237.30406058215931          272.44420247239356          -472.07554389675244          527965.53165531426     
   239.72788494565228          272.44013124311300          -471.86090751631639          529102.41829926847     
   242.16625225532619          272.43611893117583          -471.73139155892142          530245.81233915337     
   244.61924976885814          272.43217370710812          -471.68578746115605          531395.95554373646     
   247.08696526747130          272.42830381082950          -471.72320320001035          532553.09138826141     
   249.56948705907612          272.42406013938069          -471.71984928158327          533717.16177133704     
   252.06690398143058          272.41986326999950          -471.78651016558950          534888.38206380827     
   254.57930540531916          272.41571651830941          -471.92170140687080          536066.96730692813     
   257.10678123775108          272.41162291743541          -472.12411043354803          537253.13259423350     
   259.64942192517759          272.40758517521033          -472.39258055886376          538447.09342501615     
   262.20731845672867          272.40360563306621          -472.72609564102123          539649.06602980127     
   264.78056236746903          272.39968622774268          -473.12376540822231          540859.26766833337     
   267.36924574167386          272.39582845686692          -473.58481140049560          542077.91690048878     
   269.97346121612389          272.39203334932535          -474.10855343330837          543305.23383032985     
   272.59330198342064          272.38830144117395          -474.69439645617990          544541.44032321579     
   275.22886179532117          272.38463275761700          -475.34181766439281          545786.76019553386     
   277.88023496609310          272.38102680134926          -476.05035372165787          547041.41937624372     
   280.54751637588964          272.37748254731213          -476.81958795861783          548305.64603905578     
   283.23080147414498          272.37399844367559          -477.64913742958214          549579.67070372705     
   285.93018628298984          272.37057241863778          -478.53863973442026          550863.72630466579     
   288.64576740068776          272.36720189244807          -479.48773953365037          552158.04822479025     
   291.37764200509190          272.36388470062360          -480.49608360785612          553462.87431656360     
   294.12590785712246          272.36061633077713          -481.55368222927882          554778.41859170306     
   296.89066330426522          272.35739279826930          -482.67894036117991          556104.94864099193     
