 #              _____________________  _______________________             #
 #              ___  __ \__  __ \_  / / /_  /___  ____/_  ___/             #
 #              __  / / /_  /_/ /  / / /_  __/_  __/  _____ \              #
 #              _  /_/ /_  _, _// /_/ / / /_ _  /___  ____/ /              #
 #              /_____/ /_/ |_| \____/  \__/ /_____/  /____/               #
 #                                                                         #
  
 #        time                      T            heat flux [W.L-2]   in    x              directions   cumulative flux
 #-----------------------------------------------------------------------------------------------

   0.0000000000000000          5.0792999999999999          -5.9531649099943991          0.0000000000000000     
   1.0000000000000000          5.0793006172973003          -5.9533521816719537          0.0000000000000000     
   2.0060000000000002          5.0793012031074962          -5.9535245392204867          5.9535245392204867     
   3.0180360000000004          5.0793017596575059          -5.9536837522882449          11.942930394022461     
   4.0361442160000003          5.0793022887661792          -5.9538317034671850          17.968422415872578     
   5.0603610812960005          5.0793027917821814          -5.9539704056130276          24.030208603648052     
   6.0907232477837763          5.0793032695178697          -5.9541020060539465          30.128500295941251     
   7.1272675872704792          5.0793037221820470          -5.9542287804535503          36.263512361933238     
   8.1700311927941023          5.0793041493139617          -5.9543531187057557          42.435463382432687     
   9.2190513799508675          5.0793045497204794          -5.9544775049097671          48.644575814461703     
   10.274365688230573          5.0793049214179362          -5.9546044931637692          54.891076134324869     
   11.336011882359955          5.0793052615798429          -5.9547366806543716          61.175194955457428     
   12.404027953654115          5.0793055664913167          -5.9548766792677696          67.497167118511882     
   13.478452121376039          5.0793058315108244          -5.9550270867493573          73.857231752152231     
   14.559322834104295          5.0793060510396195          -5.9551904582403132          80.255632303872630     
   15.646678771108920          5.0793062184990365          -5.9553692788602977          86.692616540874326     
   16.740558843735574          5.0793063263156704          -5.9555659378563197          93.168436521624912     
   17.841002196797987          5.0793063659142987          -5.9557827047191250          99.683348539211636     
   18.948048209978776          5.0793063277183217          -5.9560217075575022          106.23761303798874     
   20.061736499238648          5.0793062011573840          -5.9562849139253835          112.83149450531870     
   21.182106918234080          5.0793059746817688          -5.9565741142172746          119.46526134043097     
   22.309199559743483          5.0793056357831148          -5.9568909076893473          126.13918570258896     
   23.443054757101944          5.0793051710209580          -5.9572366910968446          132.85354334085406     
   24.583713085644554          5.0793045660545557          -5.9576126498981026          139.60861340778953     
   25.731215364158420          5.0793038056794675          -5.9580197519392781          146.40467825946047     
   26.885602656343369          5.0793028738683370          -5.9584587435025851          153.24202324406056     
   28.046916272281429          5.0793017538153187          -5.9589301475764653          160.12093648144062     
   29.215197769915118          5.0793004279836182          -5.9594342641940621          167.04170863573700     
   30.390488956534607          5.0792988781556110          -5.9599711726687961          174.00463268319612     
   31.572831890273815          5.0792970854850461          -5.9605407355558544          181.01000367718137     
   32.762268881615455          5.0792950305508366          -5.9611426041568327          188.05811851221793     
   33.958842494905149          5.0792926934119862          -5.9617762253889985          195.14927568879676     
   35.162595549874581          5.0792900536632217          -5.9624408498440564          202.28377508052074     
   36.373571123173825          5.0792870904909222          -5.9631355408586959          209.46191770502620     
   37.591812549912866          5.0792837827289929          -5.9638591844401958          216.68400549997963     
   38.817363425212342          5.0792801089143218          -5.9646104998744365          223.95034110528934     
   40.050267605763615          5.0792760473415282          -5.9653880508791008          231.26122765254527     
   41.290569211398200          5.0792715761167333          -5.9661902571548246          238.61696856255574     
   42.538312626666588          5.0792666732100722          -5.9670154062024228          246.01786735171490     
   43.793542502426590          5.0792613165067797          -5.9678616652917880          253.46422744781538     
   45.056303757441150          5.0792554838566151          -5.9687270934657741          260.95635201579177     
   46.326641579985797          5.0792491531215056          -5.9696096534881207          268.49454379377744     
   47.604601429465710          5.0792423022212398          -5.9705072236359964          276.07910493973827     
   48.890229038042506          5.0792349091771278          -5.9714176092716116          283.71033688886473     
   50.183570412270761          5.0792269521535216          -5.9723385541126888          291.38854022179964     
   51.484671834744383          5.0792184094971482          -5.9732677511486649          299.11401454370360     
   52.793579865752847          5.0792092597741849          -5.9742028531506861          306.88705837408395     
   54.110341344947365          5.0791994818050776          -5.9751414827355331          314.70796904724830     
   55.435003393017048          5.0791890546970713          -5.9760812419464822          322.57704262318038     
   56.767613413375152          5.0791779578744514          -5.9770197213223053          330.49457380858007     
   58.108219093855404          5.0791661711065421          -5.9779545084456354          338.46085588777964     
   59.456868408418536          5.0791536745334627          -5.9788831959452642          346.47618066319177     
   60.813609618869044          5.0791404486896896          -5.9798033889493114          354.54083840492058     
   62.178491276582257          5.0791264745254807          -5.9807127119872323          362.65511780913891     
   63.551562224241749          5.0791117334262159          -5.9816088153421116          370.81930596481504     
   64.932871597587194          5.0790962072297123          -5.9824893808591746          379.03368832835423     
   66.322468827172713          5.0790798782415836          -5.9833521272158592          387.29854870570392     
   67.720403640135743          5.0790627292487365          -5.9841948146772088          395.61416924147943     
   69.126726061976555          5.0790447435310595          -5.9850152493391073          403.98083041464520     
   70.541486418348413          5.0790259048713917          -5.9858112868836493          412.39881104029752     
   71.964735336858510          5.0790061975638636          -5.9865808358661647          420.86838827709647     
   73.396523748879659          5.0789856064206838          -5.9873218605536227          429.38983763990126     
   74.836902891372944          5.0789641167774624          -5.9880323833359412          437.96343301716905     
   76.285924308721178          5.0789417144971472          -5.9887104867310486          446.58944669268720     
   77.743639854573502          5.0789183859726750          -5.9893543150159516          455.26814937123243     
   79.210101693700949          5.0788941181283969          -5.9899620754976102          463.99981020775118     
   80.685362303863158          5.0788688984203798          -5.9905320394513364          472.78469683967683     
   82.169474477686336          5.0788427148356456          -5.9910625427501376          481.62307542201432     
   83.662491324552448          5.0788155558904480          -5.9915519862141089          490.51521066484912     
   85.164466272499766          5.0787874106276378          -5.9919988356945755          499.46136587294330     
   86.675453070134765          5.0787582686132069          -5.9924016219195133          508.46180298710527     
   88.195505788555579          5.0787281199320740          -5.9927589401234416          517.51678262704093     
   89.724678823286908          5.0786969551831760          -5.9930694494829480          526.62656413541220     
   91.263026896226634          5.0786647654739339          -5.9933318723745304          535.79140562284317     
   92.810605057603993          5.0786315424141533          -5.9935449934798779          545.01156401364051     
   94.367468687949611          5.0785972781094113          -5.9937076587541593          554.28729509200866     
   95.933673500077305          5.0785619651539955          -5.9938187742759235          563.61885354856167     
   97.509275541077770          5.0785255966234271          -5.9938773049930507          573.00649302694478     
   99.094331194324241          5.0784881660666414          -5.9938822733856441          582.45046617040771     
   100.68889718149019          5.0784496674978481          -5.9938327580557464          591.95102466817787     
   102.29303056457913          5.0784100953881222          -5.9937278922602744          601.50841930150398     
   103.90678874796660          5.0783694446567704          -5.9935668623990352          611.12289998925394     
   105.53022948045439          5.0783277106624993          -5.9933489064730701          620.79471583297118     
   107.16341085733713          5.0782848891944212          -5.9930733125178497          630.52411516129825     
   108.80639132248115          5.0782409764629328          -5.9927394170254562          640.31134557369523     
   110.45922967041604          5.0781959690904888          -5.9923466033704260          650.15665398340502     
   112.12198504843853          5.0781498641022944          -5.9918943002344465          660.06028665960503     
   113.79471695872917          5.0781026589169569          -5.9913819800511305          670.02248926872210     
   115.47748526048154          5.0780543513370837          -5.9908091574688367          680.04350691488150     
   117.17035017204444          5.0780049395398867          -5.9901753878457038          690.12358417948553     
   118.87337227307670          5.0779544220677746          -5.9894802657752004          700.26296515991476     
   120.58661250671516          5.0779027978189637          -5.9887234236477846          710.46189350735654     
   122.31013218175545          5.0778500660381241          -5.9879045302617717          720.72061246378701     
   124.04399297484598          5.0777962263070586          -5.9870232894784969          731.03936489812759     
   125.78825693269505          5.0777412785354388          -5.9860794389289156          741.41839334161182     
   127.54298647429123          5.0776852229515876          -5.9850727487752753          751.85794002240527     
   129.30824439313696          5.0776280600933452          -5.9840030205287178          762.35824689952778     
   131.08409385949579          5.0775697907989761          -5.9828700859264758          772.91955569613481     
   132.87059842265276          5.0775104161981774          -5.9816738058740464          783.54210793222876     
   134.66782201318867          5.0774499377031370          -5.9804140694463950          794.22614495686287     
   136.47582894526781          5.0773883569996876          -5.9790907929589405          804.97190797992482     
   138.29468391893943          5.0773256760385239          -5.9777039191043340          815.77963810358210     
   140.12445202245306          5.0772618970265047          -5.9762534161584639          826.64957635348389     
   141.96519873458777          5.0771970224180185          -5.9747392772531160          837.58196370981182     
   143.81698992699529          5.0771310549064284          -5.9731615197237744          848.57704113829300     
   145.67989186655726          5.0770639974155802          -5.9715201845288846          859.63504962128741     
   147.55397121775661          5.0769958530913746          -5.9698153357391632          870.75623018906265     
   149.43929504506315          5.0769266252933916          -5.9680470601051709          881.94082395139174     
   151.33593081533354          5.0768563175865733          -5.9662154666968963          893.18907212960016     
   153.24394640022555          5.0767849337329478          -5.9643206866201819          904.50121608920756     
   155.16341007862690          5.0767124776833876          -5.9623628728133689          915.87749737331694     
   157.09439053909867          5.0766389535693968          -5.9603421999156909          927.31815773689789     
   159.03695688233327          5.0765643656949226          -5.9582588642223842          938.82343918214394     
   160.99117862362726          5.0764887185281680          -5.9561130837137997          950.39358399506557     
   162.95712569536903          5.0764120166934106          -5.9539050981689874          962.02883478350861     
   164.93486844954126          5.0763342649628109          -5.9516351693645637          973.72943451679612     
   166.92447766023849          5.0762554682481875          -5.9493035813524120          985.49562656718660     
   168.92602452619994          5.0761756315927666          -5.9469106408243579          997.32765475336419     
   170.93958067335714          5.0760947601628841          -5.9444566775692298          1009.2257633861964     
   172.96521815739729          5.0760128592396176          -5.9419420450095517          1021.1901973169772     
   175.00300946634167          5.0759299342103477          -5.9393671208343060          1033.2212019884148     
   177.05302752313972          5.0758459905602349          -5.9367323077214831          1045.3190234886190     
   179.11534568827855          5.0757610338635821          -5.9340380341564050          1057.4839086083659     
   181.19003776240822          5.0756750697750794          -5.9312847553376109          1069.7161049019098     
   183.27717798898269          5.0755881040209117          -5.9284729541886545          1082.0158607516571     
   185.37684105691659          5.0755001423897159          -5.9256031424622648          1094.3834254370061     
   187.48910210325809          5.0754111907233606          -5.9226758619495978          1106.8190492076851     
   189.61403671587763          5.0753212549075357          -5.9196916857846489          1119.3229833619196     
   191.75172093617289          5.0752303408621398          -5.9166512198596859          1131.8954803297970     
   193.90223126178992          5.0751384545314382          -5.9135551043426391          1144.5367937621968     
   196.06564464936065          5.0750456018739634          -5.9104040153004194          1157.2471786256688     
   198.24203851725682          5.0749517888521707          -5.9071986664366074          1170.0268913036778     
   200.43149074836035          5.0748570214217814          -5.9039398109314263          1182.8761897046170     
   202.63407969285052          5.0747613055208358          -5.9006282434025445          1195.7953333770472     
   204.84988417100763          5.0746646470584027          -5.8972648019724216          1208.7845836326026     
   207.07898347603367          5.0745670519029487          -5.8938503704519754          1221.8442036770380     
   209.32145737688987          5.0744685258703237          -5.8903858806411948          1234.9744587499106     
   211.57738612115119          5.0743690747113543          -5.8868723147447204          1248.1756162733986     
   213.84685043787809          5.0742687040990155          -5.8833107079048874          1261.4479460107818     
   216.12993154050537          5.0741674196151596          -5.8797021508534240          1274.7917202351261     
   218.42671112974841          5.0740652267367787          -5.8760477926772348          1288.2072139087222     
   220.73727139652689          5.0739621308217790          -5.8723488437095890          1301.6947048738693     
   223.06169502490604          5.0738581370942413          -5.8686065785314616          1315.2544740555791     
   225.40006519505548          5.0737532506291378          -5.8648223390909262          1328.8868056768079     
   227.75246558622581          5.0736474763364967          -5.8609975379451207          1342.5919874868580     
   230.11898037974316          5.0735408189449798          -5.8571336616118028          1356.3703110035706     
   232.49969426202162          5.0734332829848494          -5.8532322740349887          1370.2220717699677     
   234.89469242759375          5.0733248727703044          -5.8492950201661253          1384.1475696260195     
   237.30406058215931          5.0732155923811604          -5.8453236296508733          1398.1471089962088     
   239.72788494565228          5.0731054456438622          -5.8413199206274369          1412.2209991935979     
   242.16625225532619          5.0729944361117809          -5.8372858036254582          1426.3695547410969     
   244.61924976885814          5.0728825670448012          -5.8332232855693764          1440.5930957106580     
   247.08696526747130          5.0727698413881628          -5.8291344738761381          1454.8919480811196     
   249.56948705907612          5.0726562617505380          -5.8250215806486176          1469.2664441154423     
   252.06690398143058          5.0725418303813239          -5.8208869269574475          1483.7169227580819     
   254.57930540531916          5.0724265491471368          -5.8167329472050122          1498.2437300532483     
   257.10678123775108          5.0723104195074882          -5.8125621935713507          1512.8472195848180     
   259.64942192517759          5.0721934424896151          -5.8083773405306358          1527.5277529386544     
   262.20731845672867          5.0720756186624643          -5.8041811894314836          1542.2857001880984     
   264.78056236746903          5.0719569481098032          -5.7999766731430427          1557.1214404034081     
   267.36924574167386          5.0718374304024563          -5.7957668607485333          1572.0353621859001     
   269.97346121612389          5.0717170645696399          -5.7915549622873250          1587.0278642275666     
   272.59330198342064          5.0715958490694009          -5.7873443335331682          1602.0993558969244     
   275.22886179532117          5.0714737817581304          -5.7831384808026156          1617.2502578518536     
   277.88023496609310          5.0713508598591694          -5.7789410657817850          1632.4810026801697     
   280.54751637588964          5.0712270799304777          -5.7747559103680706          1647.7920355686763     
   283.23080147414498          5.0711024378313772          -5.7705870015118350          1663.1838150014225     
   285.93018628298984          5.0709769286883608          -5.7664384960512933          1678.6568134878828     
   288.64576740068776          5.0708505468599601          -5.7623147255276113          1694.2115183217552     
   291.37764200509190          5.0707232859007005          -5.7582202009796379          1709.8484323710823     
   294.12590785712246          5.0705951385241059          -5.7541596176903260          1725.5680749003382     
   296.89066330426522          5.0704660965647976          -5.7501378598935711          1741.3709824251516     
