 #              _____________________  _______________________             #
 #              ___  __ \__  __ \_  / / /_  /___  ____/_  ___/             #
 #              __  / / /_  /_/ /  / / /_  __/_  __/  _____ \              #
 #              _  /_/ /_  _, _// /_/ / / /_ _  /___  ____/ /              #
 #              /_____/ /_/ |_| \____/  \__/ /_____/  /____/               #
 #                                                                         #
  
 #        time                      T            heat flux [W.L-2]   in    x              directions   cumulative flux
 #-----------------------------------------------------------------------------------------------

   0.0000000000000000          4.8296000000000001          -1.9843422552682095          0.0000000000000000     
   1.0000000000000000          4.8303580182956596          -2.2180939653181708          0.0000000000000000     
   2.0060000000000002          4.8310767894564854          -2.4327887932590841          2.4327887932590841     
   3.0180360000000004          4.8317593892845681          -2.6300690781009703          5.0786382858286601     
   4.0361442160000003          4.8324086431601083          -2.8114370520460188          7.9239137942331048     
   5.0603610812960005          4.8330271460421059          -2.9782664531586804          10.956111339631136     
   6.0907232477837763          4.8336172809298317          -3.1318132178627049          14.163767256323053     
   7.1272675872704792          4.8341812358970042          -3.2732253216767133          17.536374790168519     
   8.1700311927941023          4.8347210198030854          -3.4035518319943985          21.064307175771908     
   9.2190513799508675          4.8352384767790424          -3.5237512323980202          24.738746715835578     
   10.274365688230573          4.8357352995782890          -3.6346990739294385          28.551619418627556     
   11.336011882359955          4.8362130418773255          -3.7371950049392422          32.495534780171383     
   12.404027953654115          4.8366731296046499          -3.8319692275239325          36.563730326593081     
   13.478452121376039          4.8371168713710748          -3.9196884252253033          40.750020559199399     
   14.559322834104295          4.8375454680693961          -4.0009612034822304          45.048749970338505     
   15.646678771108920          4.8379600217064800          -4.0763430813840387          49.454749822038963     
   16.740558843735574          4.8383615435263660          -4.1463410704946497          53.963298401887435     
   17.841002196797987          4.8387509614786479          -4.2114178739245913          58.570084491677250     
   18.948048209978776          4.8391291270824812          -4.2719957363919008          63.271173804100684     
   20.061736499238648          4.8394968217328280          -4.3284599737524250          68.062978161255927     
   21.182106918234080          4.8398547624920507          -4.3811622083356712          72.942227206027283     
   22.309199559743483          4.8402036074067709          -4.4304233344623825          77.905942453586036     
   23.443054757101944          4.8405439603868352          -4.4765362366331347          82.951413505345442     
   24.583713085644554          4.8408763756804669          -4.5197682811815092          88.076176261819015     
   25.731215364158420          4.8412013619770127          -4.5603636005359087          93.277992983952871     
   26.885602656343369          4.8415193861662766          -4.5985451877482397          98.554834064742948     
   28.046916272281429          4.8418308767811808          -4.6345168175343039          103.90486138432199     
   29.215197769915118          4.8421362271483650          -4.6684648087643188          109.32641313226766     
   30.390488956534607          4.8424357982693991          -4.7005596421189679          114.81798999067888     
   31.572831890273815          4.8427299214534845          -4.7309574455004393          120.37824258064741     
   32.762268881615455          4.8430189007208364          -4.7598013587252126          126.00596008313845     
   33.958842494905149          4.8433030149944170          -4.7872227880493003          131.70005995303796     
   35.162595549874581          4.8435825200962377          -4.8133425601718454          137.45957865226384     
   36.373571123173825          4.8438576505631747          -4.8382719845182809          143.28366333440073     
   37.591812549912866          4.8441286212959822          -4.8621138318071342          149.17156441931957     
   38.817363425212342          4.8443956290541399          -4.8849632362125481          155.12262900177092     
   40.050267605763615          4.8446588538081041          -4.9069085277426243          161.13629504296037     
   41.290569211398200          4.8449184599596169          -4.9280320008432454          167.21208629869048     
   42.538312626666588          4.8451745974398799          -4.9484106246734472          173.34960794181217     
   43.793542502426590          4.8454274026946003          -4.9681166999695403          179.54854284048409     
   45.056303757441150          4.8456769995642226          -4.9872184669376818          185.80864845712625     
   46.326641579985797          4.8459235000669940          -5.0057806681757464          192.12975433599948     
   47.604601429465710          4.8461670050919343          -5.0238650702147520          198.51176015005419     
   48.890229038042506          4.8464076050082392          -5.0415309469143113          204.95463428012113     
   50.183570412270761          4.8466453801971490          -5.0588355275977159          211.45841290164989     
   51.484671834744383          4.8468804015118891          -5.0758344125166674          218.02319955608925     
   52.793579865752847          4.8471127306708892          -5.0925819579551677          224.64916518564823     
   54.110341344947365          4.8473424205891069          -5.1091316330358305          231.33654861160824     
   55.435003393017048          4.8475695156519807          -5.1255363500648219          238.08565743758487     
   56.767613413375152          4.8477940519362308          -5.1418487700496573          244.89686936018344     
   58.108219093855404          4.8480160573814590          -5.1581215848470512          251.77063387037603     
   59.456868408418536          4.8482355519162708          -5.1744077772375574          258.70747432966186     
   60.813609618869044          4.8484525475424149          -5.1907608600768862          265.70799040566567     
   62.178491276582257          4.8486670483802570          -5.2072350955605149          272.77286085231685     
   63.551562224241749          4.8488790506787058          -5.2238856955145270          279.90284662011504     
   64.932871597587194          4.8490885427925852          -5.2407690035459549          287.09879428227839     
   66.322468827172713          4.8492955051302564          -5.2579426597920715          294.36163976276208     
   67.720403640135743          4.8494999100742113          -5.2754657489441232          301.69241235226815     
   69.126726061976555          4.8497017218772145          -5.2933989321704873          309.09223899845063     
   70.541486418348413          4.8499008965364343          -5.3118045634899076          316.56234885652282     
   71.964735336858510          4.8500973816479860          -5.3307467911396378          324.10407808648370     
   73.396523748879659          4.8502911162441009          -5.3502916444215582          331.71887488312024     
   74.836902891372944          4.8504820306151570          -5.3705071065050580          339.40830472489142     
   76.285924308721178          4.8506700461186378          -5.3914631736230989          347.17405582769874     
   77.743639854573502          4.8508550749770700          -5.4132319011157293          355.01794478948813     
   79.210101693700949          4.8510370200668778          -5.4358874367370671          362.94192241152308     
   80.685362303863158          4.8512157747000231          -5.4595060416475425          370.94807968208494     
   82.169474477686336          4.8513912224002418          -5.4841660995105421          379.03865390827974     
   83.662491324552448          4.8515632366756245          -5.5099481141267876          387.21603498158936     
   85.164466272499766          4.8517316807891815          -5.5369346960097809          395.48277176272950     
   86.675453070134765          4.8518964075290105          -5.5652105383440826          403.84157857137473     
   88.195505788555579          4.8520572589795847          -5.5948623827537585          412.29534176630034     
   89.724678823286908          4.8522140662956410          -5.6259789753289873          420.84712640152748     
   91.263026896226634          4.8523666494800448          -5.6586510133440253          429.50018294408829     
   92.810605057603993          4.8525148171669716          -5.6929710831390965          438.25795403913691     
   94.367468687949611          4.8526583664116520          -5.7290335896104310          447.12408130821535     
   95.933673500077305          4.8527970824878874          -5.7669346777916557          456.10241216664815     
   97.509275541077770          4.8529307386944458          -5.8067721469936942          465.19700664619876     
   99.094331194324241          4.8530590961713811          -5.8486453579817921          474.41214420932278     
   100.68889718149019          4.8531819037272852          -5.8926551336633048          483.75233054156763     
   102.29303056457913          4.8532988976783757          -5.9389036537247222          493.22230430885264     
   103.90678874796660          4.8534098017002822          -5.9874943436277182          502.82704386652205     
   105.53022948045439          4.8535143266933511          -6.0385317583515556          512.57177390720699     
   107.16341085733713          4.8536121706622346          -6.0921214612274488          522.46197203462668     
   108.80639132248115          4.8537030186104673          -6.1483698981923460          532.50337525054078     
   110.45922967041604          4.8537865424507247          -6.2073842677610962          542.70198634211465     
   112.12198504843853          4.8538624009314022          -6.2692723870068701          553.06408015700890     
   113.79471695872917          4.8539302395801078          -6.3341425538174176          563.59620975352993     
   115.47748526048154          4.8539896906646716          -6.4021034056984041          574.30521241322197     
   117.17035017204444          4.8540403731721691          -6.4732637753794986          585.19821550331244     
   118.87337227307670          4.8540818928065006          -6.5477325434803424          596.28264217646870     
   120.58661250671516          4.8541138420049812          -6.6256184884717007          607.56621689534404     
   122.31013218175545          4.8541357999743973          -6.7070301341692016          619.05697076942829     
   124.04399297484598          4.8541473327469404          -6.7920755949886882          630.76324669175233     
   125.78825693269505          4.8541479932564089          -6.8808624192014625          642.69370426305579     
   127.54298647429123          4.8541373214350312          -6.9734974304207356          654.85732449109184     
   129.30824439313696          4.8541148443312405          -7.0700865675812334          667.26341425286887     
   131.08409385949579          4.8540800762486720          -7.1707347236606003          679.92161050775292     
   132.87059842265276          4.8540325189066484          -7.2755455834398202          692.84188424957381     
   134.66782201318867          4.8539716616223529          -7.3846214605953859          706.03454418611443     
   136.47582894526781          4.8538969815148310          -7.4980631344512902          719.51024013467793     
   138.29468391893943          4.8538079437309669          -7.6159696867502173          733.27996612282686     
   140.12445202245306          4.8537040016934423          -7.7384383388062554          747.35506318381567     
   141.96519873458777          4.8535845973706815          -7.8655642894525073          761.74722183679182     
   143.81698992699529          4.8534491615687294          -7.9974405542041129          776.46848424243592     
   145.67989186655726          4.8532971142448709          -8.1341578060803794          791.53124602538855     
   147.55397121775661          4.8531278648428104          -8.2758042185571359          806.94825775557376     
   149.43929504506315          4.8529408126490985          -8.4224653111263805          822.73262608134849     
   151.33593081533354          4.8527353471704258          -8.5742237979578722          838.89781450829719     
   153.24394640022555          4.8525108485313391          -8.7311594401604111          855.45764381843935     
   155.16341007862690          4.8522666878918272          -8.8933489021468208          872.42629212561769     
   157.09439053909867          4.8520022278841708          -9.0608656125990841          889.81829456387743     
   159.03695688233327          4.8517168230683367          -9.2337796305317461          907.64854260673644     
   160.99117862362726          4.8514098204051548          -9.4121575169286515          925.93228301634451     
   162.95712569536903          4.8510805597464000          -9.5960622124181754          944.68511642266196     
   164.93486844954126          4.8507283743408536          -9.7855529214295540          963.92299553392047     
   166.92447766023849          4.8503525913553478          -9.9806850032478369          983.66222298076912     
   168.92602452619994          4.8499525324097110          -10.181509870353088          1003.9194487976285     
   170.93958067335714          4.8495275141245031          -10.388074894402649          1024.7116675458929     
   172.96521815739729          4.8490768486803306          -10.600423320173249          1046.0562150846963     
   175.00300946634167          4.8485998443875440          -10.818594187746342          1067.9707649960142     
   177.05302752313972          4.8480958062650146          -11.042622263181606          1090.4733246718813     
   179.11534568827855          4.8475640366267045          -11.272537977878612          1113.5822310724743     
   181.19003776240822          4.8470038356746841          -11.508367376789730          1137.3161461647189     
   183.27717798898269          4.8464145020972387          -11.750132075603270          1161.6940520519499     
   185.37684105691659          4.8457953336707069          -11.997849226968450          1186.7352458059308     
   187.48910210325809          4.8451456278636531          -12.251531495806322          1212.4593340133042     
   189.61403671587763          4.8444646824420259          -12.511187043698326          1238.8862270492007     
   191.75172093617289          4.8437517960739056          -12.776819522307402          1266.0361330913447     
   193.90223126178992          4.8430062689325055          -13.048428075754650          1293.9295518885431     
   196.06564464936065          4.8422274032960688          -13.326007351829334          1322.5872682979007     
   198.24203851725682          4.8414145041433718          -13.609547521892861          1352.0303456055437     
   200.43149074836035          4.8405668797435295          -13.899034309284117          1382.2801186459481     
   202.63407969285052          4.8396838422388653          -14.194449026025175          1413.3581867352643     
   204.84988417100763          4.8387647082196388          -14.495768617587373          1445.2864064342498     
   207.07898347603367          4.8378087992894558          -14.802965715462950          1478.0868841565787     
   209.32145737688987          4.8368154426202441          -15.116008697255433          1511.7819686383984     
   211.57738612115119          4.8357839714957365          -15.434861754000188          1546.3942432850674     
   213.84685043787809          4.8347137258424109          -15.759484964407527          1581.9465184110288     
   216.12993154050537          4.8336040527469395          -16.089834375765328          1618.4618233888741     
   218.42671112974841          4.8324543069591810          -16.425862091219248          1655.9633987236984     
   220.73727139652689          4.8312638513798323          -16.767516363178515          1694.4746880689454     
   223.06169502490604          4.8300320575318745          -17.114741692570931          1734.0193301999770     
   225.40006519505548          4.8287583060149926          -17.467478933646991          1774.6211509615614     
   227.75246558622581          4.8274419869422234          -17.825665404031596          1816.3041552054137     
   230.11898037974316          4.8260825003580976          -18.189234999658780          1859.0925187337002     
   232.49969426202162          4.8246792566376442          -18.558118314220838          1903.0105802641492     
   234.89469242759375          4.8232316768656904          -18.932242762734077          1948.0828334320561     
   237.30406058215931          4.8217391931959339          -19.311532708791859          1994.3339188439988     
   239.72788494565228          4.8202012491893695          -19.695909595069093          2041.7886161975607     
   242.16625225532619          4.8186173001317094          -20.085292076631234          2090.4718364807713     
   244.61924976885814          4.8169868133295344          -20.479596156608192          2140.4086142643682     
   247.08696526747130          4.8153092683849632          -20.878735323791641          2191.6241000993209     
   249.56948705907612          4.8135841574487195          -21.282620691730358          2244.1435530314088     
   252.06690398143058          4.8118109854515305          -21.691161138918240          2297.9923332439853     
   254.57930540531916          4.8099892703138716          -22.104263449698809          2353.1958948394440     
   257.10678123775108          4.8081185431343361          -22.521832454485224          2409.7797787666727     
   259.64942192517759          4.8061983483575679          -22.943771166692958          2467.7696058953375     
   262.20731845672867          4.8042282439233768          -23.369980912981589          2527.1910702290652     
   264.78056236746903          4.8022078013995291          -23.800361453309492          2588.0699322401474     
   267.36924574167386          4.8001366061012956          -24.234811087778464          2650.4320122997165     
   269.97346121612389          4.7980142572012889          -24.673226748176539          2714.3031841707066     
   272.59330198342064          4.7958403678332457          -25.115504073418208          2779.7093685273153     
   275.22886179532117          4.7936145651931508          -25.561537469401966          2846.6765264644378     
   277.88023496609310          4.7913364906406528          -26.011220155000991          2915.2306529634552     
   280.54751637588964          4.7890057998029922          -26.464444196821283          2985.3977702862981     
   283.23080147414498          4.7866221626828347          -26.921100535966360          3057.2039212771451     
   285.93018628298984          4.7841852637705298          -27.381079010347435          3130.6751625597626     
   288.64576740068776          4.7816948021604349          -27.844268376084443          3205.8375576275644     
   291.37764200509190          4.7791504916701699          -28.310556331305701          3282.7171698323818     
   294.12590785712246          4.7765520609609959          -28.779829545241533          3361.3400552861067     
   296.89066330426522          4.7738992536570066          -29.251973694962555          3441.7322556964682     
