 #              _____________________  _______________________             #
 #              ___  __ \__  __ \_  / / /_  /___  ____/_  ___/             #
 #              __  / / /_  /_/ /  / / /_  __/_  __/  _____ \              #
 #              _  /_/ /_  _, _// /_/ / / /_ _  /___  ____/ /              #
 #              /_____/ /_/ |_| \____/  \__/ /_____/  /____/               #
 #                                                                         #
  
 #        time                      T            heat flux [W.L-2]   in    x              directions   cumulative flux
 #-----------------------------------------------------------------------------------------------

   0.0000000000000000          278.24900000000002           8.0664108611248562          0.0000000000000000     
   1.0000000000000000          278.24923494522199           7.9199649970944002          0.0000000000000000     
   2.0060000000000002          278.24945772237572           7.7863793991811807          7.7863793991811807     
   3.0180360000000004          278.24966928531501           7.6645070457263103          15.496873487181848     
   4.0361442160000003          278.24987051003683           7.5532995094433959          23.141084509520905     
   5.0603610812960005          278.25006220083674           7.4517986516979375          30.727821940792296     
   6.0907232477837763          278.25024509598495           7.3591290021630522          38.265165978696615     
   7.1272675872704792          278.25041987295668           7.2744907726047874          45.760526051253017     
   8.1700311927941023          278.25058715325599           7.1971534493954845          53.220694719641102     
   9.2190513799508675          278.25074750685962           7.1264499225814824          60.651897335495711     
   10.274365688230573          278.25090145631390           7.0617711048419283          68.059837781555217     
   11.336011882359955          278.25104948050927           7.0025610024401583          75.449740602031795     
   12.404027953654115          278.25119201815914           6.9483122000208271          82.826389804806666     
   13.478452121376039          278.25132947100423           6.8985617263301924          90.194164597342095     
   14.559322834104295          278.25146220676658           6.8528872679955972          97.557072296750434     
   15.646678771108920          278.25159056187016           6.8109037038158586          104.91877863741740     
   16.740558843735574          278.25171484394798           6.7722599323596295          112.28263568180719     
   17.841002196797987          278.25183533415264           6.7366359677507033          119.65170752346965     
   18.948048209978776          278.25195228928425           6.7037402825436399          127.02879395805155     
   20.061736499238648          278.25206594375180           6.6733073754770302          134.41645228280333     
   21.182106918234080          278.25217651138007           6.6450955463095980          141.81701737374127     
   22.309199559743483          278.25228418707525           6.6188848585405298          149.23262017598682     
   23.443054757101944          278.25238914835927           6.5944752764932986          156.66520473473813     
   24.583713085644554          278.25249155678358           6.5716849600020186          164.11654388203885     
   25.731215364158420          278.25259155923266           6.5503487034543202          171.58825368549233     
   26.885602656343369          278.25268928912453           6.5303165086892436          179.08180675862997     
   28.046916272281429          278.25278486751807           6.5114522772055148          186.59854452110477     
   29.215197769915118          278.25287840413301           6.4936326148265158          194.13968849360228     
   30.390488956534607          278.25296999828987           6.4767457365342747          201.70635070247315     
   31.572831890273815          278.25305973977686           6.4606904647366701          209.29954326515474     
   32.762268881615455          278.25314770964826           6.4453753117584140          216.92018722030943     
   33.958842494905149          278.25323398096100           6.4307176400780106          224.56912066229145     
   35.162595549874581          278.25331861945216           6.4166428936670430          232.24710623475625     
   36.373571123173825          278.25340168416557           6.4030838932942968          239.95483803253481     
   37.591812549912866          278.25348322802660           6.3899801924726241          247.69294795948517     
   38.817363425212342          278.25356329837359           6.3772774865999047          255.46201158347142     
   40.050267605763615          278.25364193744701           6.3649270720789035          263.26255352787507     
   41.290569211398200          278.25371918283997           6.3528853509788012          271.09505243565980     
   42.538312626666588          278.25379506791268           6.3411133774943629          278.95994553927699     
   43.793542502426590          278.25386962217522           6.3295764418008629          286.85763286597194     
   45.056303757441150          278.25394287163869           6.3182436894739906          294.78848110733179     
   46.326641579985797          278.25401483913947           6.3070877725582370          302.75282717849439     
   47.604601429465710          278.25408554463644           6.2960845301403019          310.75098149106987     
   48.890229038042506          278.25415500548530           6.2852126953523637          318.78323096117163     
   50.183570412270761          278.25422323669034           6.2744536274796410          326.84984177339425     
   51.484671834744383          278.25429025113567           6.2637910661055569          334.95106191870985     
   52.793579865752847          278.25435605979766           6.2532109065995805          343.08712352431417     
   54.110341344947365          278.25442067194030           6.2427009936811100          351.25824499012788     
   55.435003393017048          278.25448409529366           6.2322509336061254          359.46463294817448     
   56.767613413375152          278.25454633621843           6.2218519211718561          367.70648405686029     
   58.108219093855404          278.25460739985579           6.2114965818819146          375.98398664329625     
   59.456868408418536          278.25466729026505           6.2011788282251388          384.29732220608872     
   60.813609618869044          278.25472601054940           6.1908937270546378          392.64666678761415     
   62.178491276582257          278.25478356297066           6.1806373796370986          401.03219222741865     
   63.551562224241749          278.25483994905403           6.1704068113049031          409.45406730479738     
   64.932871597587194          278.25489516968400           6.1601998705792846          417.91245877886558     
   66.322468827172713          278.25494922519050           6.1500151384632753          426.40753233584132     
   67.720403640135743          278.25500211542885           6.1398518440081169          434.93945344834054     
   69.126726061976555          278.25505383985086           6.1297097888705911          443.50838815556307     
   70.541486418348413          278.25510439756999           6.1195892775487115          452.11450376903645     
   71.964735336858510          278.25515378742017           6.1094910549285206          460.75796951115780     
   73.396523748879659          278.25520200800838           6.0994162489386836          469.43895709100264     
   74.836902891372944          278.25524905776302           6.0893663187005052          478.15764122266989     
   76.285924308721178          278.25529493497663           6.0793430074004151          486.91420009059181     
   77.743639854573502          278.25533963784369           6.0693483003165003          495.70881576709655     
   79.210101693700949          278.25538316449575           6.0593843858727698          504.54167458467816     
   80.685362303863158          278.25542551303141           6.0494536214942558          513.41296746817079     
   82.169474477686336          278.25546668154317           6.0395585023179397          522.32289022941075     
   83.662491324552448          278.25550666814183           6.0297016330838344          531.27164382759202     
   85.164466272499766          278.25554547097704           6.0198857031627409          540.25943459862242     
   86.675453070134765          278.25558308825583           6.0101134643224503          549.28647445635556     
   88.195505788555579          278.25561951825796           6.0003877103705960          558.35298106741686     
   89.724678823286908          278.25565475934968           5.9907112597389807          567.45917800305722     
   91.263026896226634          278.25568880999577           5.9810869395143369          576.60529486934627     
   92.810605057603993          278.25572166876867           5.9715175716985938          585.79156741829445     
   94.367468687949611          278.25575333435631           5.9620059608801075          595.01823764135418     
   95.933673500077305          278.25578380556948           5.9525548834669930          604.28555384706021     
   97.509275541077770          278.25581308134588           5.9431670787794246          613.59377072512348     
   99.094331194324241          278.25584116075481           5.9338452406139988          622.94314939721573     
   100.68889718149019          278.25586804299940           5.9245920106508727          632.33395745687676     
   102.29303056457913          278.25589372741877           5.9154099722672617          641.76646899879643     
   103.90678874796660          278.25591821348809           5.9063016461403910          651.24096463996341     
   105.53022948045439          278.25594150081929           5.8972694855892520          660.75773153197429     
   107.16341085733713          278.25596358916010           5.8883158736158858          670.31706336695675     
   108.80639132248115          278.25598447839258           5.8794431204206861          679.91926037766905     
   110.45922967041604          278.25600416853126           5.8706534608539389          689.56462933148225     
   112.12198504843853          278.25602265972066           5.8619490534302869          699.25348352063247     
   113.79471695872917          278.25603995223224           5.8533319791524061          708.98614274831925     
   115.47748526048154          278.25605604646154           5.8448042409157770          718.76293331150111     
   117.17035017204444          278.25607094292428           5.8363677631959625          728.58418798077673     
   118.87337227307670          278.25608464225257           5.8280243925096489          738.45024597858890     
   120.58661250671516          278.25609714519072           5.8197758974419003          748.36145295498739     
   122.31013218175545          278.25610845259098           5.8116239697195784          758.31816096268858     
   124.04399297484598          278.25611856540922           5.8035702248649326          768.32072843072126     
   125.78825693269505          278.25612748470007           5.7956162031868299          778.36952013722714     
   127.54298647429123          278.25613521161250           5.7877633712881931          788.46490718232417     
   129.30824439313696          278.25614174738490           5.7800131232603249          798.60726696052257     
   131.08409385949579          278.25614709334047           5.7723667819740667          808.79698313288441     
   132.87059842265276          278.25615125088154           5.7648256012661570          819.03444560054459     
   134.66782201318867          278.25615422148587           5.7573907668803557          829.32005047745417     
   136.47582894526781          278.25615600670130           5.7500633984575336          839.65420006423915     
   138.29468391893943          278.25615660814060           5.7428445514140325          850.03730282304855     
   140.12445202245306          278.25615602747712           5.7357352183481050          860.46977335260442     
   141.96519873458777          278.25615426643998           5.7287363309767105          870.95203236446537     
   143.81698992699529          278.25615132680917           5.7218487620737228          881.48450666058466     
   145.67989186655726          278.25614721041092           5.7150733269496357          892.06762911139322     
   147.55397121775661          278.25614191911359           5.7084107852184856          902.70183863499324     
   149.43929504506315          278.25613545482241           5.7018618428983991          913.38758017816053     
   151.33593081533354          278.25612781947592           5.6954271535424086          924.12530469742273     
   153.24394640022555          278.25611901504107           5.6891073202990796          934.91546914200899     
   155.16341007862690          278.25610904350930           5.6829028972538485          945.75853643739720     
   157.09439053909867          278.25609790689208           5.6768143916666869          956.65497547122743     
   159.03695688233327          278.25608560721747           5.6708422646363825          967.60526107865769     
   160.99117862362726          278.25607214652547           5.6649869332661194          978.60987403008426     
   162.95712569536903          278.25605752686471           5.6592487718765643          989.66930101947685     
   164.93486844954126          278.25604175028866           5.6536281133882254          1000.7840346537093     
   166.92447766023849          278.25602481885153           5.6481252509339370          1011.9545734434010     
   168.92602452619994          278.25600673460548           5.6427404387876310          1023.1814217939867     
   170.93958067335714          278.25598749959636           5.6374738941714400          1034.4650899988048     
   172.96521815739729          278.25596711586081           5.6323257979089796          1045.8060942319767     
   175.00300946634167          278.25594558542309           5.6272962962066027          1057.2049565433731     
   177.05302752313972          278.25592291029170           5.6223855012213200          1068.6622048532968     
   179.11534568827855          278.25589909245622           5.6175934925046045          1080.1783729486824     
   181.19003776240822          278.25587413388439           5.6129203181817937          1091.7540004803457     
   183.27717798898269          278.25584803651941           5.6083659955012006          1103.3896329600304     
   185.37684105691659          278.25582080227690           5.6039305121994829          1115.0858217589700     
   187.48910210325809          278.25579243304219           5.5996138271417628          1126.8431241065116     
   189.61403671587763          278.25576293066763           5.5954158716255495          1138.6621030902272     
   191.75172093617289          278.25573229697028           5.5913365497148630          1150.5433276555211     
   193.90223126178992          278.25570053372877           5.5873757395145400          1162.4873726067419     
   196.06564464936065          278.25566764268149           5.5835332936005466          1174.4948186080564     
   198.24203851725682          278.25563362552373           5.5798090401302938          1186.5662521855625     
   200.43149074836035          278.25559848390600           5.5762027833111034          1198.7022657293062     
   202.63407969285052          278.25556221943128           5.5727143038016962          1210.9034574950674     
   204.84988417100763          278.25552483365283           5.5693433601253117          1223.1704316081491     
   207.07898347603367          278.25548632807215           5.5660896888433928          1235.5037980665124     
   209.32145737688987          278.25544670413740           5.5629530050611509          1247.9041727439869     
   211.57738612115119          278.25540596324055           5.5599330033867895          1260.3721773945908     
   213.84685043787809          278.25536410671589           5.5570293583093076          1272.9084396567050     
   216.12993154050537          278.25532113583836           5.5542417244905797          1285.5135930569122     
   218.42671112974841          278.25527705182111           5.5515697378084985          1298.1882770152201     
   220.73727139652689          278.25523185581449           5.5490130154873523          1310.9331368496355     
   223.06169502490604          278.25518554890346           5.5465711567347773          1323.7488237812465     
   225.40006519505548          278.25513813210654           5.5442437431725411          1336.6359949393700     
   227.75246558622581          278.25508960637382           5.5420303393805908          1349.5953133670407     
   230.11898037974316          278.25503997258500           5.5399304934758744          1362.6274480269499     
   232.49969426202162          278.25498923154868           5.5379437371478577          1375.7330738065771     
   234.89469242759375          278.25493738400036           5.5360695863095915          1388.9128715239640     
   237.30406058215931          278.25488443060061           5.5343075419182668          1402.1675279345702     
   239.72788494565228          278.25483037193442           5.5326570894701463          1415.4977357360710     
   242.16625225532619          278.25477520850859           5.5311177003855958          1428.9041935756127     
   244.61924976885814          278.25471894075179           5.5296888317832531          1442.3876060557018     
   247.08696526747130          278.25466156901155           5.5283699271698321          1455.9486837409343     
   249.56948705907612          278.25460309355469           5.5271604164417347          1469.5881431639086     
   252.06690398143058          278.25454351456460           5.5260597168749062          1483.3067068327603     
   254.57930540531916          278.25448283214087           5.5250672330088380          1497.1051032376226     
   257.10678123775108          278.25442104629730           5.5241823571653184          1510.9840668575850     
   259.64942192517759          278.25435815696170           5.5234044695909184          1524.9443381672224     
   262.20731845672867          278.25429416397355           5.5227329394369642          1538.9866636448255     
   264.78056236746903          278.25422906708377           5.5221671246201831          1553.1117957795368     
   267.36924574167386          278.25416286595305           5.5217063720829707          1567.3204930783957     
   269.97346121612389          278.25409556015126           5.5213500184976665          1581.6135200744461     
   272.59330198342064          278.25402714915600           5.5210973903511302          1595.9916473343442     
   275.22886179532117          278.25395763235161           5.5209478044982134          1610.4556514666860     
   277.88023496609310          278.25388700902852           5.5209005682494405          1625.0063151298630     
   280.54751637588964          278.25381527838169           5.5209549800657189          1639.6444270410489     
   283.23080147414498          278.25374243951001           5.5211103296467190          1654.3707819847514     
   285.93018628298984          278.25366849141568           5.5213658981390603          1669.1861808212432     
   288.64576740068776          278.25359343300261           5.5217209588279816          1684.0914304961836     
   291.37764200509190          278.25351726307616           5.5221747773908474          1699.0873440502940     
   294.12590785712246          278.25343998034185           5.5227266120232192          1714.1747406287470     
   296.89066330426522          278.25336158340502           5.5233757138166721          1729.3544454909643     
