 #              _____________________  _______________________             #
 #              ___  __ \__  __ \_  / / /_  /___  ____/_  ___/             #
 #              __  / / /_  /_/ /  / / /_  __/_  __/  _____ \              #
 #              _  /_/ /_  _, _// /_/ / / /_ _  /___  ____/ /              #
 #              /_____/ /_/ |_| \____/  \__/ /_____/  /____/               #
 #                                                                         #
  
 #        time                      T            heat flux [W.L-2]   in    x              directions   cumulative flux
 #-----------------------------------------------------------------------------------------------

   0.0000000000000000          20.000000000000000          -0.0000000000000000          0.0000000000000000     
   1.0000000000000000          19.312526438164642          -212.81186550804884          0.0000000000000000     
   2.0060000000000002          18.676946778392189          -404.43158488798844          404.43158488798844     
   3.0180360000000004          18.088727197334265          -576.47713737252388          984.36758508474736     
   4.0361442160000003          17.543639605052615          -730.60059011147121          1723.7616838988001     
   5.0603610812960005          17.037773593189826          -868.41964300954339          2607.9068573826030     
   6.0907232477837763          16.567535708057651          -991.47688164367594          3623.3942011131421     
   7.1272675872704792          16.129640294181250          -1101.2172215283069          4758.0467632606978     
   8.1700311927941023          15.721094966140809          -1198.9772045026666          6000.8397977615277     
   9.2190513799508675          15.339182893801819          -1285.9819184976238          7341.8149397322959     
   10.274365688230573          14.981443445792662          -1363.3467181916324          8771.9931692092432     
   11.336011882359955          14.645652267531851          -1432.0818643323560          10283.289651267054     
   12.404027953654115          14.329801528330094          -1493.0988303535148          11868.432341970896     
   13.478452121376039          14.032080823937326          -1547.2174494794044          13520.885443801659     
   14.559322834104295          13.750859041855415          -1595.1733619298477          15234.778255565319     
   15.646678771108920          13.484667368642151          -1637.6254153333127          17004.839605418543     
   16.740558843735574          13.232183527840320          -1675.1628021657034          18826.337823802725     
   17.841002196797987          12.992217274101243          -1708.3118061462965          20695.026066379007     
   18.948048209978776          12.763697126136369          -1737.5420886327995          22607.092708481152     
   20.061736499238648          12.545658292836684          -1763.2724853622278          24559.116483552785     
   21.182106918234080          12.337231729183737          -1785.8763096385017          26548.026015663821     
   22.309199559743483          12.137634248431691          -1805.6861745454587          28571.063391613574     
   23.443054757101944          11.946159612248842          -1822.9983568991779          30625.751425158371     
   24.583713085644554          11.762170519437783          -1838.0767314672205          32709.864280276131     
   25.731215364158420          11.585091415311078          -1851.1563068719795          34821.401139143840     
   26.885602656343369          11.414402046913493          -1862.4463955287044          36958.562621622965     
   28.046916272281429          11.249631693423748          -1872.1334496174434          39119.729685135717     
   29.215197769915118          11.090354005787848          -1880.3835939177766          41303.444755938974     
   30.390488956534607          10.936182394614518          -1887.3448846676017          43508.394864349721     
   31.572831890273815          10.786765910379787          -1893.1493216645945          45733.396577056788     
   32.762268881615455          10.641785564893301          -1897.9146387619769          47977.382539037215     
   33.958842494905149          10.500951047675663          -1901.7458958214061          50239.389455659344     
   35.162595549874581          10.363997795324082          -1904.7368931416711          52518.547362252059     
   36.373571123173825          10.230684376070041          -1906.9714274256264          54814.070043755069     
   37.591812549912866          10.100790155543217          -1908.5244065047207          57125.246481077731     
   38.817363425212342          9.9741132132498720          -1909.4628383245513          59451.433213543416     
   40.050267605763615          9.8504684824592790          -1909.8467081115878          61792.047518357394     
   41.290569211398200          9.7296860890822430          -1909.7297561906842          64146.561318488057     
   42.538312626666588          9.6116098677387427          -1909.1601676015430          66514.495739777834     
   43.793542502426590          9.4960960355663477          -1908.1811834640346          68895.416246584122     
   45.056303757441150          9.3830120064373084          -1906.8316429598024          71288.928292871788     
   46.326641579985797          9.2722353301500391          -1905.1464638228292          73694.673432515250     
   47.604601429465710          9.1636527428594743          -1903.1570683562361          76112.325838691366     
   48.890229038042506          9.0571593165289421          -1900.8917612082148          78541.589187722624     
   50.183570412270761          8.9526576965412161          -1898.3760644385623          80982.193867626193     
   51.484671834744383          8.8500574178144085          -1895.6330147811202          83433.894475995650     
   52.793579865752847          8.7492742908442072          -1892.6834274491707          85896.467575742019     
   54.110341344947365          8.6502298500513444          -1889.5461303340728          88369.709680697255     
   55.435003393017048          8.5528508576646427          -1886.2381720054414          90853.435446180301     
   56.767613413375152          8.4570688571265595          -1882.7750065288042          93347.476042383161     
   58.108219093855404          8.3628197706803284          -1879.1706577683196          95851.677690888144     
   59.456868408418536          8.2700435363945246          -1875.4378655333041          98365.900346809853     
   60.813609618869044          8.1786837804105961          -1871.5882156536618          100890.01651099560     
   62.178491276582257          8.0886875206689020          -1867.6322558269633          103423.91015844270     
   63.551562224241749          8.0000048987856722          -1863.5795988655293          105967.47577062281     
   64.932871597587194          7.9125889371231883          -1859.4390147821252          108520.61746076474     
   66.322468827172713          7.8263953184233737          -1855.2185129852619          111083.24818235530     
   67.720403640135743          7.7413821856657972          -1850.9254157068644          113655.28901219099     
   69.126726061976555          7.6575099600689791          -1846.5664236542164          116236.66850026586     
   70.541486418348413          7.5747411753825213          -1842.1476747624674          118827.32207962625     
   71.964735336858510          7.4930403268203216          -1837.6747968219740          121427.19153007369     
   73.396523748879659          7.4123737331649933          -1833.1529546646627          124036.22449026375     
   74.836902891372944          7.3327094107330257          -1828.5868925141569          126654.37401333929     
   76.285924308721178          7.2540169580317500          -1823.9809720342673          129281.59816176206     
   77.743639854573502          7.1762674500646586          -1819.3392065486241          131917.85963747237     
   79.210101693700949          7.0994333413530395          -1814.6652918496452          134563.12544392026     
   80.685362303863158          7.0234883768407999          -1810.0726334614631          137217.52788694040     
   82.169474477686336          6.9484075099371463          -1805.4616447220942          139881.05433455759     
   83.662491324552448          6.8741668270298302          -1800.8198595226736          142553.67301093772     
   85.164466272499766          6.8007434778709790          -1796.1504763700548          145235.35593166482     
   86.675453070134765          6.7281156112992324          -1791.4564574083122          147926.07865103055     
   88.195505788555579          6.6562623158167025          -1786.7405471626305          150625.82002859242     
   89.724678823286908          6.5851635645881244          -1782.0052896465766          153334.56201335997     
   91.263026896226634          6.5148001644730051          -1777.2530439901263          156052.28944412386     
   92.810605057603993          6.4451537087403850          -1772.4859987292893          158778.98986458170     
   94.367468687949611          6.3762065331503166          -1767.7061848835970          161514.65335203925     
   95.933673500077305          6.3079416751170427          -1762.9154879346668          164259.27235857776     
   97.509275541077770          6.2403428356963735          -1758.1156588075257          167012.84156367916     
   99.094331194324241          6.1733943441643850          -1753.3083239460186          169775.35773739161     
   100.68889718149019          6.1070811249766024          -1748.4949945645026          172546.81961319922     
   102.29303056457913          6.0413888144583092          -1743.6770043335500          175327.22765691290     
   103.90678874796660          5.9763078908008556          -1738.8535207971904          178116.58063792542     
   105.53022948045439          5.9118238726752024          -1734.0262433171458          180914.87967828711     
   107.16341085733713          5.8479229367307921          -1729.1967015737882          183722.12803810555     
   108.80639132248115          5.7845918659600351          -1724.3662753607832          186538.33092594941     
   110.45922967041604          5.7218180038391697          -1719.5362117774375          189363.49533100749     
   112.12198504843853          5.6595892134908219          -1714.7076401792679          192197.62987419273     
   113.79471695872917          5.5978938412170596          -1709.8815851968695          195040.74467576045     
   115.47748526048154          5.5367206838408691          -1705.0589780896942          197892.85123733862     
   117.17035017204444          5.4760589593709907          -1700.2406666638549          200753.96233655087     
   118.87337227307670          5.4158982805713443          -1695.4274239508666          203624.09193265875     
   120.58661250671516          5.3562286310734573          -1690.6199558164622          206503.25508186038     
   122.31013218175545          5.2970403437194946          -1685.8189076447970          209391.46786106587     
   124.04399297484598          5.2383240808659144          -1681.0248702228587          212288.74729912702     
   125.78825693269505          5.1800708164142257          -1676.2383849323105          215195.11131463456     
   127.54298647429123          5.1222718193667394          -1671.4599483408892          218110.57865951385     
   129.30824439313696          5.0649186387322054          -1666.6900162725278          221035.16886775065     
   131.08409385949579          5.0080030896294856          -1661.9290074242704          223968.90220866579     
   132.87059842265276          4.9515172404573988          -1657.1773065885043          226911.79964423293     
   134.66782201318867          4.8954534010161019          -1652.4352675308996          229863.88278999840     
   136.47582894526781          4.8398041114801540          -1647.7032155674246          232825.17387921805     
   138.29468391893943          4.7845621321362133          -1642.9814498778348          235795.69572987460     
   140.12445202245306          4.7297204338092378          -1638.2702455878787          238775.47171428031     
   141.96519873458777          4.6752721889105890          -1633.5698556480918          241764.52573100658     
   143.81698992699529          4.6212107630495600          -1628.8805125332469          244762.88217891246     
   145.67989186655726          4.5675297071569068          -1624.2024297833304          247770.56593307212     
   147.55397121775661          4.5142227500750653          -1619.5358034041178          250787.60232242371     
   149.43929504506315          4.4612837915749752          -1614.8808131430658          253814.01710898313     
   151.33593081533354          4.4087068957640039          -1610.2376236541775          256849.83646848382     
   153.24394640022555          4.3564862848534212          -1605.6063855637651          259895.08697231859     
   155.16341007862690          4.3046163332572869          -1600.9872364475113          262949.79557067360     
   157.09439053909867          4.2530915619976390          -1596.3803017279477          266013.98957675579     
   159.03695688233327          4.2019066333934152          -1591.7856955003308          269087.69665202539     
   160.99117862362726          4.1510563460128811          -1587.2035212939647          272170.94479235448     
   162.95712569536903          4.1005356298712616          -1582.6338727751506          275263.76231503999     
   164.93486844954126          4.0503395418570660          -1578.0768343972495          278366.17784660676     
   166.92447766023849          4.0004632613721176          -1573.5324820027079          281478.22031134221     
   168.92602452619994          3.9509020861716309          -1569.0008833813577          284599.91892050987     
   170.93958067335714          3.9016514283919141          -1564.4820987888279          287731.30316219339     
   172.96521815739729          3.8527068107542948          -1559.9761814284909          290872.40279172757     
   175.00300946634167          3.8040638629348358          -1555.4831779000235          294023.24782267574     
   177.05302752313972          3.7557183180902465          -1551.0031286173173          297183.86851831764     
   179.11534568827855          3.7076660095311276          -1546.5360681982363          300354.29538361350     
   181.19003776240822          3.6599028675343828          -1542.0820258284300          303534.55915761355     
   183.27717798898269          3.6124249162872180          -1537.6410256012477          306724.69080628507     
   185.37684105691659          3.5652282709557102          -1533.2130868355603          309924.72151572997     
   187.48910210325809          3.5183091348714148          -1528.7982243731610          313134.68268576922     
   189.61403671587763          3.4716637968299242          -1524.3964488572558          316354.60592387174     
   191.75172093617289          3.4252886284957063          -1520.0077669934169          319584.52303940663     
   193.90223126178992          3.3791800819079185          -1515.6321817942637          322824.46603819990     
   196.06564464936065          3.3333346870822407          -1511.2696928090097          326074.46711737779     
   198.24203851725682          3.2877490497040545          -1506.9202963389521          329334.55866047955     
   200.43149074836035          3.2424198489086291          -1502.5839856398472          332604.77323282510     
   202.63407969285052          3.1973438351441934          -1498.2607511120884          335885.14357712230     
   204.84988417100763          3.1525178281140342          -1493.9505804794833          339175.70260930108     
   207.07898347603367          3.1079387147939945          -1489.6534589574076          342476.48341456114     
   209.32145737688987          3.0636034475219365          -1485.3693694110186          345787.51924362220     
   211.57738612115119          3.0195090421559354          -1481.0982925041835          349108.84350916551     
   213.84685043787809          2.9756525762981507          -1476.8402068397186          352440.48978245608     
   216.12993154050537          2.9320311875814835          -1472.5950890914878          355782.49179013650     
   218.42671112974841          2.8886420720162871          -1468.3629141288809          359134.88341118285     
   220.73727139652689          2.8454824823945453          -1464.1436551341476          362497.69867401465     
   223.06169502490604          2.8025497267490622          -1459.9372837130231          365870.97175375046     
   225.40006519505548          2.7598411668653400          -1455.7437699990680          369254.73696960206     
   227.75246558622581          2.7173542168439395          -1451.5630827520984          372649.02878239972     
   230.11898037974316          2.6750863417112254          -1447.3951894510640          376053.88179224246     
   232.49969426202162          2.6330350560765070          -1443.2400563817123          379469.33073626662     
   234.89469242759375          2.5911979228336870          -1439.0976487193443          382895.41048652708     
   237.30406058215931          2.5495725519056105          -1434.9679306069520          386332.15604798554     
   239.72788494565228          2.5081565990294101          -1430.8508652290163          389779.60255660093     
   242.16625225532619          2.4669477645812172          -1426.7464148812016          393237.78527751623     
   244.61924976885814          2.4259437924386780          -1422.6545410362057          396706.73960333806     
   247.08696526747130          2.3851424688798053          -1418.5752044059677          400186.50105250400     
   249.56948705907612          2.3445416215167496          -1414.5083650004519          403677.10526773357     
   252.06690398143058          2.3041391182631497          -1410.4539821832011          407178.58801455918     
   254.57930540531916          2.2639328663337701          -1406.4120147238373          410690.98517993314     
   257.10678123775108          2.2239208112752098          -1402.3824208476838          414214.33277090720     
   259.64942192517759          2.1841009360265047          -1398.3651582826692          417748.66691338149     
   262.20731845672867          2.1444712600085123          -1394.3601843036638          421294.02385091950     
   264.78056236746903          2.1050298382410038          -1390.3674557743896          424850.43994362629     
   267.36924574167386          2.0657747604864487          -1386.3869291870301          428417.95166708686     
   269.97346121612389          2.0267041504195076          -1382.4185606996850          431996.59561136231     
   272.59330198342064          1.9878161648213062          -1378.4623061717605          435586.40848004090     
   275.22886179532117          1.9491089927975920          -1374.5181211974277          439187.42708934203     
   277.88023496609310          1.9105808550199153          -1370.5859611372400          442799.68836727040     
   280.54751637588964          1.8722300029890224          -1366.6657811480143          446423.22935281828     
   283.23080147414498          1.8340547183196620          -1362.7575362110676          450058.08719521423     
   285.93018628298984          1.7960533120460676          -1358.8611811588946          453704.29915321554     
   288.64576740068776          1.7582241239473819          -1354.9766707003662          457361.90259444329     
   291.37764200509190          1.7205655218923375          -1351.1039594445349          461030.93499475782     
   294.12590785712246          1.6830759012025283          -1347.2430019231103          464711.43393767276     
   296.89066330426522          1.6457536840336331          -1343.3937526116797          468403.43711380661     
