 #              _____________________  _______________________             #
 #              ___  __ \__  __ \_  / / /_  /___  ____/_  ___/             #
 #              __  / / /_  /_/ /  / / /_  __/_  __/  _____ \              #
 #              _  /_/ /_  _, _// /_/ / / /_ _  /___  ____/ /              #
 #              /_____/ /_/ |_| \____/  \__/ /_____/  /____/               #
 #                                                                         #
  
 #        time                      T            heat flux [W.L-2]   in    x              directions   cumulative flux
 #-----------------------------------------------------------------------------------------------

   0.0000000000000000          20.000000000000000          -0.0000000000000000          0.0000000000000000     
   1.0000000000000000          20.000000000000000          -3.3892888495756759E-012     0.0000000000000000     
   2.0060000000000002          19.999999999999993          -4.5190517994342456E-011     4.5190517994342456E-011
   3.0180360000000004          19.999999999999964          -2.8244073746464417E-010     3.2932589988377453E-010
   4.0361442160000003          19.999999999999851          -1.1986784898000123E-009     1.5424316839870197E-009
   5.0603610812960005          19.999999999999442          -4.0648870935920302E-009     5.6809266310854270E-009
   6.0907232477837763          19.999999999998266          -1.1817320455528412E-008     1.7784425544245035E-008
   7.1272675872704792          19.999999999995207          -3.0516027038681982E-008     4.9226985276420950E-008
   8.1700311927941023          19.999999999987992          -7.1752374708756155E-008     1.2360150312551098E-007
   9.2190513799508675          19.999999999972253          -1.5629027672185172E-007     2.8657531558827387E-007
   10.274365688230573          19.999999999939991          -3.1935687161991679E-007     6.2158712082479789E-007
   11.336011882359955          19.999999999877375          -6.1812720277740457E-007     1.2739056022527038E-006
   12.404027953654115          19.999999999761378          -1.1418593218351495E-006     2.4861562055101487E-006
   13.478452121376039          19.999999999555062          -2.0253576738013514E-006     4.6492707512489464E-006
   14.559322834104295          19.999999999200988          -3.4663545001012849E-006     8.3736058000494164E-006
   15.646678771108920          19.999999998612285          -5.7475639412712379E-006     1.4585979333702483E-005
   16.740558843735574          19.999999997660847          -9.2640708804734450E-006     2.4659321806416952E-005
   17.841002196797987          19.999999996161854          -1.4556840843010232E-005     4.0582759924983616E-005
   18.948048209978776          19.999999993853958          -2.2353062702792622E-005     6.5181039196859095E-005
   20.061736499238648          19.999999990374313          -3.3614115030342626E-005     1.0239341122780029E-004
   21.182106918234080          19.999999985227408          -4.9591816994516724E-005     1.5762323705771229E-004
   22.309199559743483          19.999999977746771          -7.1893701554557609E-005     2.3817081359152451E-004
   23.443054757101944          19.999999967048410          -1.0255792440597054E-004     3.5376309551797167E-004
   24.583713085644554          19.999999951974829          -1.4413840519847295E-004     5.1719517539122002E-004
   25.731215364158420          19.999999931028345          -1.9980069699708497E-004     7.4509950446956371E-004
   26.885602656343369          19.999999902292458          -2.7342903702885747E-004     1.0588599474720302E-003
   28.046916272281429          19.999999863339855          -3.6974488828117851E-004     1.4856887478541668E-003
   29.215197769915118          19.999999811125704          -4.9443724875898956E-004     2.0598854570649350E-003
   30.390488956534607          19.999999741864755          -6.5430479620809943E-004     2.8242976442878387E-003
   31.572831890273815          19.999999650890910          -8.5740996210418089E-004     3.8320040160686342E-003
   32.762268881615455          19.999999532497696          -1.1132447677418794E-003     5.1482411007303906E-003
   33.958842494905149          19.999999379758318          -1.4329082405843412E-003     6.8525951672796757E-003
   35.162595549874581          19.999999184323784          -1.8292950324706729E-003     9.0414813340559952E-003
   36.373571123173825          19.999998936197876          -2.3172948127187253E-003     1.1830932044130976E-002
   37.591812549912866          19.999998623487514          -2.9140018137355042E-003     1.5359717061114374E-002
   38.817363425212342          19.999998232127361          -3.6389338378606771E-003     1.9792817011558744E-002
   40.050267605763615          19.999997745577481          -4.5142599167073095E-003     2.5325272203808733E-002
   41.290569211398200          19.999997144493069          -5.5650356934191705E-003     3.2186427975142290E-002
   42.538312626666588          19.999996406365156          -6.8194454921123122E-003     4.0644597168546702E-002
   43.793542502426590          19.999995505131626          -8.3090499687760704E-003     5.1012159554223058E-002
   45.056303757441150          19.999994410757747          -1.0069038152106285E-002     6.3651117062914125E-002
   46.326641579985797          19.999993088785782          -1.2138482594688632E-002     7.8979122578155536E-002
   47.604601429465710          19.999991499853145          -1.4560596273680754E-002     9.7475998743414838E-002
   48.890229038042506          19.999989599179049          -1.7382989905077015E-002    0.11969076190601793     
   50.183570412270761          19.999987336019462          -2.0657928188857495E-002    0.14624916472160993     
   51.484671834744383          19.999984653090593          -2.4442583560033124E-002    0.17786176933283213     
   52.793579865752847          19.999981485961129          -2.8799285957429716E-002    0.21533256125826861     
   54.110341344947365          19.999977762413785          -3.3795767131192915E-002    0.25956811227037896     
   55.435003393017048          19.999973401776785          -3.9505397994282536E-002    0.31158729856949852     
   56.767613413375152          19.999968314226155          -4.6007417583207012E-002    0.37253157857166674     
   58.108219093855404          19.999962400059896          -5.3387152184312621E-002    0.44367583253086468     
   59.456868408418536          19.999955548945223          -6.1736223243049455E-002    0.52643976410189364     
   60.813609618869044          19.999947639140245          -7.1152742661302087E-002    0.62239986172134565     
   62.178491276582257          19.999938536691726          -8.1741494275498913E-002    0.73330191560871960     
   63.551562224241749          19.999928094610613          -9.3614100241632608E-002    0.86107408393185014     
   64.932871597587194          19.999916152027200         -0.10688917117426863          1.0078404994906411     
   66.322468827172713          19.999902533328044         -0.12169243902901304          1.1759354061866867     
   67.720403640135743          19.999887047276687         -0.13815687169420909          1.3679178123411622     
   69.126726061976555          19.999869486120605         -0.15642276845195285          1.5865866459002032     
   70.541486418348413          19.999849624686707         -0.17663783551142434          1.8349963945253489     
   71.964735336858510          19.999827219467974         -0.19895724095192188          2.1164732116372518     
   73.396523748879659          19.999802007703739         -0.22354364846713037          2.4346314675578951     
   74.836902891372944          19.999773706456445         -0.25056722950314009          2.7933907231927355     
   76.285924308721178          19.999742011687481         -0.28020565339387993          3.1969931019499809     
   77.743639854573502          19.999706597334960         -0.31264405525560923          3.6500210340219645     
   79.210101693700949          19.999667114396249         -0.34807498152955740          4.1574153457198619     
   80.685362303863158          19.999623190018134         -0.38669831313723352          4.7244936651905682     
   82.169474477686336          19.999574426597420         -0.42872116630640666          5.3569691145852101     
   83.662491324552448          19.999520400894824         -0.47435777129940693          6.0609692577182912     
   85.164466272499766          19.999460663165046         -0.52382932929763137          6.8430552712422346     
   86.675453070134765          19.999394736305710         -0.57736384784260320          7.7102413065522901     
   88.195505788555579          19.999322115028029         -0.63519595531711737          8.6700140089476054     
   89.724678823286908          19.999242265051755         -0.69756669500941448          9.7303521599764853     
   91.263026896226634          19.999154622327126         -0.76472329946102491          10.899746408543059     
   92.810605057603993          19.999058592286289         -0.83691894578598636          12.187219055999675     
   94.367468687949611          19.998953549126629         -0.91441249276500292          13.602343860293427     
   95.933673500077305          19.998838835128360         -0.99746820063508013          15.155265824288476     
   97.509275541077770          19.998713760008595          -1.0863554344505755          16.856720933406041     
   99.094331194324241          19.998577600313897          -1.1813483520119785          18.718055807968650     
   100.68889718149019          19.998429598853448          -1.2827255774237312          20.751247236027972     
   102.29303056457913          19.998268964174510          -1.3907698613170396          22.968921552859623     
   103.90678874796660          19.998094870081957          -1.5057677288838740          25.384373833940263     
   105.53022948045439          19.997906455203371          -1.6280091168226873          28.011586868842290     
   107.16341085733713          19.997702822601141          -1.7577870003761911          30.865249884290545     
   108.80639132248115          19.997483039432773          -1.8953970116479004          33.960776985513071     
   110.45922967041604          19.997246136660483          -2.0411370503397759          37.314325285903017     
   112.12198504843853          19.996991108811063          -2.1953068881591804          40.942812696138112     
   113.79471695872917          19.996716913786670          -2.3582077680211273          44.863935344909670     
   115.47748526048154          19.996422472727325          -2.5301419992936345          49.096184604694670     
   117.17035017204444          19.996106669925364          -2.7114125501802322          53.658863697111535     
   118.87337227307670          19.995768352792311          -2.9023226384624170          58.572103853799184     
   120.58661250671516          19.995406331878240          -3.1031753216904301          63.856880010015900     
   122.31013218175545          19.995019380943592          -3.3142730879334388          69.535026009528650     
   124.04399297484598          19.994606237083349          -3.5359174481720794          75.629249300771491     
   125.78825693269505          19.994165600903255          -3.7684085313940447          82.163145105703506     
   127.54298647429123          19.993696136747573          -4.0120446833451693          89.161210044142493     
   129.30824439313696          19.993196472977917          -4.2671220699747598          96.648855197924206     
   131.08409385949579          19.992665202302355          -4.5339342864347607          104.65241860057941     
   132.87059842265276          19.992100882154041          -4.8127719725662743          113.19917713976793     
   134.66782201318867          19.991502035118295          -5.1039224356685668          122.31735786108908     
   136.47582894526781          19.990867149407304          -5.4076692813870819          132.03614866341434     
   138.29468391893943          19.990194679381030          -5.7242920533961019          142.38570837719999     
   140.12445202245306          19.989483046113250          -6.0540658826360101          153.39717621876810     
   141.96519873458777          19.988730638001261          -6.3972611466784981          165.10268061480747     
   143.81698992699529          19.987935811417945          -6.7541431398853025          177.53534739283862     
   145.67989186655726          19.987096891404523          -7.1249717548214004          190.72930733456928     
   147.55397121775661          19.986212172402571          -7.5100011754488731          204.71970309042567     
   149.43929504506315          19.985279919023537          -7.9094795825574167          219.54269545482933     
   151.33593081533354          19.984298366854159          -8.3236488717833570          235.23546900293570     
   153.24394640022555          19.983265723295951          -8.7527443845575519          251.83623709072074     
   155.16341007862690          19.982180168437033          -9.1969946523032249          269.38424622148369     
   157.09439053909867          19.981039855954446          -9.6566211540971789          287.91977978285536     
   159.03695688233327          19.979842914045122          -10.131838087999835          307.48416115944661     
   160.99117862362726          19.978587446383621          -10.622852156194902          328.11975622722787     
   162.95712569536903          19.977271533104744          -11.129862364088231          349.86997523673892     
   164.93486844954126          19.975893231809145          -11.653059833361528          372.77927409296757     
   166.92447766023849          19.974450578590030          -12.192627629081400          396.89315504070328     
   168.92602452619994          19.972941589079014          -12.748740600792031          422.25816676482907     
   170.93958067335714          19.971364259509311          -13.321565237593987          448.92190391583608     
   172.96521815739729          19.969716567794304          -13.911259537079042          476.93300607142078     
   175.00300946634167          19.967996474619689          -14.517972888051370          506.34115614573614     
   177.05302752313972          19.966201924547303          -15.141845966836003          537.19707825832916     
   179.11534568827855          19.964330847128885          -15.783010647060811          569.55253507543966     
   181.19003776240822          19.962381158027902          -16.441589922643811          603.46032463667166     
   183.27717798898269          19.960350760147801          -17.117697843819620          638.97427668059072     
   185.37684105691659          19.958237544764827          -17.811439465914898          676.14924848309738     
   187.48910210325809          19.956039392663897          -18.522910810599814          715.04112022274728     
   189.61403671587763          19.953754175275769          -19.252198839353863          755.70678988753548     
   191.75172093617289          19.951379755813974          -19.999381438817988          798.20416773786076     
   193.90223126178992          19.948913990410002          -20.764527417684327          842.59217034053290     
   196.06564464936065          19.946354729245218          -21.547696514851921          888.93071418898421     
   198.24203851725682          19.943699817678048          -22.348939418409156          937.28070892477797     
   200.43149074836035          19.940947097365157          -23.168297795166307          987.70405017577013     
   202.63407969285052          19.938094407375171          -24.005804330307566          1040.2636120261971     
   204.84988417100763          19.935139585293747          -24.861482776801608          1095.0232391340128     
   207.07898347603367          19.932080468318762          -25.735348014206089          1152.0477385108222     
   209.32145737688987          19.928914894344476          -26.627406116445503          1211.4028709796371     
   211.57738612115119          19.925640703033533          -27.537654428198977          1273.1553423256705     
   213.84685043787809          19.922255736875769          -28.466081649462925          1337.3727941551842     
   216.12993154050537          19.918757842232910          -29.412667927958015          1404.1237944774230     
   218.42671112974841          19.915144870368128          -30.377384958908767          1473.4778280243413     
   220.73727139652689          19.911414678459685          -31.360196091874357          1545.5052863228175     
   223.06169502490604          19.907565130597764          -32.361056444174523          1620.2774575337032     
   225.40006519505548          19.903594098763815          -33.379913020578577          1697.8665160719772     
   227.75246558622581          19.899499463791653          -34.416704838819236          1778.3455120219098     
   230.11898037974316          19.895279116309698          -35.471363060610102          1861.7883603610339     
   232.49969426202162          19.890930957663755          -36.543811127745187          1948.2698300063471     
   234.89469242759375          19.886452900819805          -37.633964902936057          2037.8655326959472     
   237.30406058215931          19.881842871246270          -38.741732815018963          2130.6519117190032     
   239.72788494565228          19.877098807775415          -39.867016008182638          2226.7062305066738     
   242.16625225532619          19.872218663443380          -41.009708494870914          2326.1065610962860     
   244.61924976885814          19.867200406308594          -42.169697312024191          2428.9317724807697     
   247.08696526747130          19.862042020248214          -43.346862680321678          2535.2615188550099     
   249.56948705907612          19.856741505732408          -44.541078166133602          2645.1762277705175     
   252.06690398143058          19.851296880576133          -45.752210845819647          2758.7570882093637     
   254.57930540531916          19.845706180668447          -46.980121472146678          2876.0860385881706     
   257.10678123775108          19.839967460679063          -48.224664642469271          2997.2457547024596     
   259.64942192517759          19.834078794742087          -49.485688968431681          3122.3196376214132     
   262.20731845672867          19.828038277116953          -50.763037246898719          3251.3918015427253     
   264.78056236746903          19.821844022826486          -52.056546631892971          3384.5470616169705     
   267.36924574167386          19.815494168272092          -53.366048807214511          3521.8709217504088     
   269.97346121612389          19.808986871826153          -54.691370159596175          3663.4495623950365     
   272.59330198342064          19.802320314401740          -56.032331952090260          3809.3698283341914     
   275.22886179532117          19.795492699999649          -57.388750497503565          3959.7192164717726     
   277.88023496609310          19.788502256232963          -58.760437331653769          4114.5858636327785     
   280.54751637588964          19.781347234829326          -60.147199386271545          4274.0585343826087     
   283.23080147414498          19.774025912111014          -61.548839161330918          4438.2266088721854     
   285.93018628298984          19.766536589453082          -62.965154896636520          4607.1800707156690     
   288.64576740068776          19.758877593719824          -64.395940742508671          4781.0094949072718     
   291.37764200509190          19.751047277679696          -65.840986929386688          4959.8060357833110     
   294.12590785712246          19.743044020399061          -67.300079936208292          5143.6614150354062     
   296.89066330426522          19.734866227615012          -68.773002657432414          5332.6679097804345     
