 #              _____________________  _______________________             #
 #              ___  __ \__  __ \_  / / /_  /___  ____/_  ___/             #
 #              __  / / /_  /_/ /  / / /_  __/_  __/  _____ \              #
 #              _  /_/ /_  _, _// /_/ / / /_ _  /___  ____/ /              #
 #              /_____/ /_/ |_| \____/  \__/ /_____/  /____/               #
 #                                                                         #
  
 #        time                      T            heat flux [W.L-2]   in    x              directions   cumulative flux
 #-----------------------------------------------------------------------------------------------

   0.0000000000000000        10.000000000000000       -0.0000000000000000        0.0000000000000000     
   1.0000000000000000        10.000000000000004       -5.6488147492927914E-013   5.6488147492927914E-013
   1.9540000000000002        10.000000000000030       -7.9083406490099086E-012   8.4732221239391883E-012
   2.8641160000000001        10.000000000000130       -3.7847058820261698E-011   4.6320280944200886E-011
   3.8288389600000006        10.000000000000538       -1.6325074625456166E-010   2.0957102719876254E-010
   4.8514452976000007        10.000000000002021       -6.1515592619798492E-010   8.2472695339674746E-010
   5.9354080154560007        10.000000000006910       -2.0990995608372011E-009   2.9238265142339486E-009
   7.0844084963833609        10.000000000021679       -6.5650525016280848E-009   9.4888790158620329E-009
   8.3023490061663630        10.000000000063183       -1.9054581912314461E-008   2.8543460928176494E-008
   9.5933659465363448        10.000000000172685       -5.1838608072785170E-008   8.0382069000961670E-008
   10.961843903328527        10.000000000446162       -1.3328095960218984E-007   2.1366302860315151E-007
   12.412430537528239        10.000000001097129       -3.2604111410706257E-007   5.3970414271021414E-007
   13.950052369779934        10.000000002581983       -7.6307296481562753E-007   1.3027771075258416E-006
   15.579931511966731        10.000000005842178       -1.7164934753568111E-006   3.0192705828826526E-006
   17.307603402684734        10.000000012758008       -3.7252453282130356E-006   6.7445159110956878E-006
   19.138935606845820        10.000000026975270       -7.8250166772913724E-006   1.4569532588387060E-005
   21.080147743256571        10.000000055372093       -1.5951195958779334E-005   3.0520728547166395E-005
   23.137832607851966        10.000000110597453       -3.1626973221740168E-005   6.2147701768906563E-005
   25.318978564323086        10.000000215360879       -6.1109460350887876E-005   1.2325716211979444E-004
   27.630993278182473        10.000000409516703       -1.1525306841249616E-004   2.3851023053229060E-004
   30.081728874873424        10.000000761505346       -2.1246824440913638E-004   4.5097847494142700E-004
   32.679508607365833        10.000001386432476       -3.8331114851667661E-004   8.3428962345810361E-004
   35.433155123807786        10.000002474030136       -6.7744030163427384E-004   1.5117299250923776E-003
   38.352020431236255        10.000004330990922       -1.1739192835031839E-003   2.6856492085955614E-003
   41.446017657110431        10.000007443719623       -1.9961225285327891E-003   4.6817717371283509E-003
   44.725654716537058        10.000012569396262       -3.3327954059199413E-003   8.0145671430482922E-003
   47.506786942930837        10.000018626113309       -4.8966202463911956E-003   1.2911187389439489E-002
   48.714287808457584        10.000021613132766       -5.6651032601340587E-003   1.8576290649573547E-002
   49.994238725915935        10.000025225739812       -6.5909536939240884E-003   2.5167244343497635E-002
   51.350986698421785        10.000029614256714       -7.7109874901103610E-003   3.2878231833607996E-002
   52.789139549277991        10.000034968394694       -9.0713538215338764E-003   4.1949585655141869E-002
   54.313581571185566        10.000041528090064       -1.0729995432251494E-002   5.2679581087393360E-002
   55.929490114407599        10.000049597364603       -1.2759756700746427E-002   6.5439337788139790E-002
   57.642353170222954        10.000059562034046       -1.5252301180008218E-002   8.0691638968148002E-002
   59.457988009387229        10.000071912295720       -1.8323035249735720E-002   9.9014674217883722E-002
   61.382560938901356        10.000087271476430       -2.2117274319731865E-002  0.12113194853761558     
   63.422608244186335        10.000106432519557       -2.6817932157194722E-002  0.14794988069481030     
   65.585058387788408        10.000130404138007       -3.2655060823468168E-002  0.18060494151827847     
   67.877255540006615        10.000160468959960       -3.9917616770477532E-002  0.22052255828875600     
   70.306984521357904        10.000198256439779       -4.8967873049625285E-002  0.26949043133838130     
   72.882497241590272        10.000245833790558       -6.0258934187481794E-002  0.32974936552586309     
   75.612540725036581        10.000305818696726       -7.4355830831962344E-002  0.40410519635782544     
   78.506386817489670        10.000381518056823       -9.1960666754908521E-002  0.49606586311273393     
   81.573863675489946        10.000477097445183      -0.11394224919595257       0.61000811230868646     
   84.825389144970245        10.000597786309671      -0.14137054145945011       0.75137865376813662     
   88.272006142619361        10.000750124067391      -0.17555611911999980       0.92693477288813642     
   91.925420160127416        10.000942252132374      -0.21809457358382561        1.1450293464719621     
   95.798039018685955        10.001184256408198      -0.27091547647482217        1.4159448229467841     
   99.903015008758018        10.001488563796324      -0.33633508724412980        1.7522799101909139     
   104.25428955823440        10.001870394703507      -0.41711145423462603        2.1693913644255400     
   108.86664058067937        10.002348271291144      -0.51649993698932828        2.6858913014148684     
   113.75573266447104        10.002944578239990      -0.63830648980309168        3.3241977912179603     
   118.64482474826271        10.003637930755529      -0.77743626920630837        4.1016340604242689     
   123.82726235708186        10.004490141546272      -0.94525310465382417        5.0468871650780933     
   124.97930845308017        10.004685469911974      -0.98357278283433225        6.0304599479124255     
   126.20047731483835        10.004899233243885       -1.0253417973699965        7.0558017452824222     
   127.49491630830204        10.005133490142125       -1.0709211073737803        8.1267228526562025     
   128.86702164137355        10.005390561183381       -1.1207138118565851        9.2474366645127883     
   130.32145329442935        10.005673064898652       -1.1751702692437507        10.422606933756539     
   131.86315084666850        10.005983958764748       -1.2347937979331594        11.657400731689698     
   133.49735025204200        10.006326585866441       -1.3001470057718272        12.957547737461525     
   135.22960162173791        10.006704727946685       -1.3718587926860581        14.329406530147583     
   137.06578807361558        10.007122665626113       -1.4506320655469256        15.780038595694508     
   139.01214571260590        10.007585246633344       -1.5372521959785712        17.317290791673081     
   141.07528480993562        10.008097962941150       -1.6325962393613052        18.949887031034386     
   143.26221225310513        10.008667037745470       -1.7376429158505264        20.687529946884911     
   145.58035534286483        10.009299523248792       -1.8534833307369862        22.541013277621897     
   148.03758701801010        10.010003410209553       -1.9813323808598278        24.522345658481726     
   150.64225259366410        10.010787750186211       -2.1225407549767263        26.644886413458451     
   153.40319810385733        10.011662791328757       -2.2786073879446951        28.923493801403147     
   156.32980034466215        10.012640128440273       -2.4511921704713644        31.374685971874513     
   159.43199871991527        10.013732867834465       -2.6421286475966110        34.016814619471127     
   162.72032899768357        10.014955807238858       -2.8534363599232901        36.870250979394420     
   166.20595909211795        10.016325630789623       -3.0873324324669715        39.957583411861393     
   169.90072699221841        10.017861117781752       -3.3462416982565784        43.303825110117970     
   173.81718096632488        10.019583365345396       -3.6328050530694784        46.936630163187445     
   177.96862217887775        10.021516021922032       -3.9498849988243436        50.886515162011790     
   182.36914986418381        10.023685529386821       -4.3005676788030627        55.187082840814853     
   187.03370921060821        10.026121370041368       -4.6881604536834791        59.875243294498333     
   191.97814211781809        10.028856313755567       -5.1161840263387024        64.991427320837033     
   197.21924099946057        10.031926659409924       -5.5883580867987792        70.579785407635811     
   202.77480581400158        10.035372463623345       -6.1085794535136282        76.688364861149438     
   208.66370451741506        10.039237748596268       -6.6808917443099318        83.369256605459370     
   214.90593714303336        10.043570679817522       -7.3094457302825138        90.678702335741889     
   221.52270372618875        10.048423703449824       -7.9984497168847737        98.677152052626667     
   228.53647630433346        10.053853632505401       -8.7521095638457584        107.42926161647243     
   235.97107523716684        10.059921670537294       -9.5745583004262418        117.00381991689868     
   242.66221427671690        10.065629006350161       -10.331971414111544        127.33579133101023     
   248.33630018225534        10.070641386515593       -10.985508432367965        138.32129976337819     
   254.35083124212611        10.076142910973145       -11.689594668667338        150.01089443204552     
   260.36536230199687        10.081827167326777       -12.403753569768444        162.41464800181396     
   266.74076522545988        10.088050869036602       -13.170629287889922        175.58527728970387     
   273.49869232433065        10.094862499444259       -13.992952059750030        189.57822934945389     
   280.66209504913365        10.102313723182025       -14.873346048471369        204.45157539792527     
   288.25530193742486        10.110459344412568       -15.814277776778297        220.26585317470358     
   296.30410123901356        10.119357212246765       -16.817999521134247        237.08385269583783     
   304.83582849869754        10.129068066990939       -17.886488354489433        254.97034105032728     
   313.87945939396258        10.139655321515749       -19.021381795153918        273.99172284548121     
   323.46570814294353        10.151184772994053       -20.223911294183196        294.21563413966442     
   333.62713181686331        10.163724241534149       -21.494835059802696        315.71046919946713     
   339.14193967317306        10.170619219985285       -22.182997047308163        337.89346624677529     
   344.98763600086141        10.178023651763324       -22.910116142927038        360.80358238970234     
   350.83333232854977        10.185519077017673       -23.634397693088484        384.43798008279083     
   357.02977043589942        10.193560943738213       -24.398391055248034        408.83637113803888     
   363.59799482969004        10.202187602853556       -25.203406483410678        434.03977762144956     
   370.56031268710808        10.211439418074367       -26.050647946371694        460.09042556782123     
   377.94036961597124        10.221358732356901       -26.941185958406464        487.03161152622772     
   385.76322996056615        10.231989806312711       -27.875928280122434        514.90753980635020     
   394.05546192583677        10.243378725145957       -28.855588758266066        543.76312856461630     
   402.84522780902364        10.255573270844641       -29.880654674150772        573.64378323876701     
   412.16237964520172        10.268622756621323       -30.951353076999123        604.59513631576613     
   422.03856059155049        10.282577821006221       -32.067616687461822        636.66275300322798     
   432.50731239468018        10.297490179554504       -33.229050063937031        669.89180306716503     
   434.70276877282390        10.300622643330701       -33.471654066042227        703.36345713320725     
   436.56451578148977        10.303282553827303       -33.676683199273477        737.04014033248075     
   438.53796761067559        10.306105967504141       -33.893223710082623        770.93336404256343     
   440.62982654961257        10.309103043440270       -34.121863193541330        805.05522723610477     
   442.84719702488576        10.312284569315468       -34.363210968796082        839.41843820490089     
   445.19760972867533        10.315661998120479       -34.617897724354577        874.03633592925553     
   447.68904719469225        10.319247485768987       -34.886574867173877        908.92291079642939     
   450.32997090867019        10.323053929985916       -35.169913603054788        944.09282439948413     
   453.12935004548683        10.327095010335295       -35.468603709541988        979.56142810902611     
   456.09669193051246        10.331385229207719       -35.783351959109069        1015.3447800681352     
   459.24207432863966        10.335939953537823       -36.114880147106220        1051.4596602152415     
   462.57617967065448        10.340775456965241       -36.463922675754475        1087.9235828909959     
   466.11033133319017        10.345908962088123       -36.831223642644936        1124.7548065336409     
   469.85653209547803        10.351358682385822       -37.217533379780512        1161.9723399134214     
   473.82750490350315        10.357143863306968       -37.623604387484932        1199.5959443009062     
   478.03673608000975        10.363284821930424       -38.050186606619846        1237.6461309075262     
   482.49852112710676        10.369802984510361       -38.498021972841698        1276.1441528803680     
   487.22801327702956        10.376720921112918       -38.967838198288035        1315.1119910786560     
   492.24127495594774        10.384062376442234       -39.460341729503583        1354.5723328081597     
   497.55533233560107        10.391852295839096       -39.976209835934263        1394.5485426440939     
   503.18823315803354        10.400116845318230       -40.516081791098124        1435.0646244351919     
   509.15910802981199        10.408883424393135       -41.080549119298077        1476.1451735544899     
   515.48823539389718        10.418180670323437       -41.670144894364078        1517.8153184488540     
   522.19711039982747        10.428038452313276       -42.285332094047881        1560.1006505429018     
   529.30851790611359        10.438487859898354       -42.926491648594670        1603.0271421914965     
   536.84660986277686        10.449561155632958       -43.593907212356690        1646.6210494038532     
   544.83698733683991        10.461291745406252       -44.287752673130633        1690.9088020769839     
   553.30678745934676        10.473714111041655       -45.008076670690301        1735.9168787476742     
   562.28477558920395        10.486863729629627       -45.754787137703524        1781.6716658853777     
   571.26276371906113        10.499991020881732       -46.484872696200988        1828.1565385815786     
   580.24075184891831        10.513092030518809       -47.198555149792504        1875.3550937313712     
   589.75741926656701        10.526945198763320       -47.936906806810903        1923.2920005381820     
   599.84508672927461        10.541586657502471       -48.699511497924263        1971.9915120361063     
   610.53801423974460        10.557053147295651       -49.485775335973798        2021.4772873720801     
   621.87251740084287        10.573381857428895       -50.294912254817298        2071.7721996268974     
   633.88709075160705        10.590610242411337       -51.125930229558826        2122.8981298564563     
   646.62253850341699        10.608775814424570       -51.977618520610640        2174.8757483770669     
   660.12211312033560        10.627915911642209       -52.848536310998718        2227.7242846880654     
   671.56975239548251        10.644059891799454       -53.564721727537112        2281.2890064156027     
   677.78261518289025        10.652795402730359       -53.946916538621132        2335.2359229542240     
   681.15446007487219        10.657528546897796       -54.152443141446426        2389.3883660956703     
   684.72861566037307        10.662536820007309       -54.368185652201241        2443.7565517478715     
   688.51722058100393        10.667835518305223       -54.594516126053080        2498.3510678739244     
   692.53314179687266        10.673440687236242       -54.831802892307593        2553.1828707662321     
   696.79001828569358        10.679369145239741       -55.080407961179588        2608.2632787274115     
   701.30230736384374        10.685638504515245       -55.340683971330449        2663.6039626987417     
   706.08533378668290        10.692267189770423       -55.612970770961383        2719.2169334697032     
   711.15534179489237        10.699274454469416       -55.897591611598187        2775.1145250813015     
   716.52955028359440        10.706680394043772       -56.194848935870198        2831.3093740171716     
   722.22621128161859        10.714505955470658       -56.505019743609296        2887.8143937607811     
   728.26467193952419        10.722772942564088       -56.828350524514590        2944.6427442852955     
   734.66544023690415        10.731504016266008       -57.165051750778218        3001.8077960360738     
   741.45025463212698        10.740722689166221       -57.515291929292509        3059.3230879653661     
   748.64215789106311        10.750453318255342       -57.879191546790217        3117.2022795121561     
   756.26557534553547        10.760721071397967       -58.256815312064134        3175.4590948242203     
   763.88899280000783        10.770941697553624       -58.626481855922293        3234.0855766801424     
   771.96981530174844        10.781722168604098       -59.009566824446630        3293.0951435045890     
   780.53548715359352        10.793089012065948       -59.406002418824485        3352.5011459234133     
   789.61509931654928        10.805069457902828       -59.815644639365935        3412.3167905627793     
   799.23948820928240        10.817691380656195       -60.238265370825594        3472.5550559336048     
   809.44134043557949        10.830983229522527       -60.673544317421118        3533.2286002510259     
   820.25530379545444        10.844973945467283       -61.121060884737737        3594.3496611357637     
   831.71810495692193        10.859692864528972       -61.580286123130968        3655.9299472588946     
   843.86867418807742        10.875169606559437       -62.050574864857687        3717.9805221237521     
   856.74827757310231        10.891433948771789       -62.531158204640640        3780.5116803283927     
   870.40065716122865        10.908515683628256       -63.021136489977252        3843.5328168183701     
   884.87217952464255        10.926444460798242       -63.519473002588391        3907.0522898209583     
   900.21199322986126        10.945249613153294       -64.024988525228608        3971.0772783461871     
   916.47219575739314        10.964959967040187       -64.536356997792424        4035.6136353439797     
   933.70801043657696        10.985603637386127       -65.052102471718186        4100.6657378156979     
