 #              _____________________  _______________________             #
 #              ___  __ \__  __ \_  / / /_  /___  ____/_  ___/             #
 #              __  / / /_  /_/ /  / / /_  __/_  __/  _____ \              #
 #              _  /_/ /_  _, _// /_/ / / /_ _  /___  ____/ /              #
 #              /_____/ /_/ |_| \____/  \__/ /_____/  /____/               #
 #                                                                         #
  
 #        time                      T            heat flux [W.L-2]   in    x              directions   cumulative flux
 #-----------------------------------------------------------------------------------------------

   0.0000000000000000        20.000000000000000       -0.0000000000000000        0.0000000000000000     
   1.0000000000000000        19.999999999999996       -4.5190517994350991E-012   4.5190517994350991E-012
   1.9540000000000002        19.999999999999989       -4.6320280944272379E-011   5.0839332743707476E-011
   2.8641160000000001        19.999999999999972       -2.2482282702338625E-010   2.7566215976709372E-010
   3.8288389600000006        19.999999999999883       -9.3883301135776520E-010   1.2144951711248590E-009
   4.8514452976000007        19.999999999999535       -3.5248604038933736E-009   4.7393555750182326E-009
   5.9354080154560007        19.999999999998270       -1.1983395612760514E-008   1.6722751187778748E-008
   7.0844084963833609        19.999999999994124       -3.7386115569352752E-008   5.4108866757131499E-008
   8.3023490061663630        19.999999999981441       -1.0824823729359177E-007   1.6235710405072328E-007
   9.5933659465363448        19.999999999945128       -2.9372594128512391E-007   4.5608304533584716E-007
   10.961843903328527        19.999999999846935       -7.5305932124532983E-007   1.2091423665811770E-006
   12.412430537528239        19.999999999594422       -1.8365788598850910E-006   3.0457212264662680E-006
   13.950052369779934        19.999999998973497       -4.2844138703092896E-006   7.3301350967755575E-006
   15.579931511966731        19.999999997506816       -9.6043228528438871E-006   1.6934457949619446E-005
   17.307603402684734        19.999999994166195       -2.0767708977430762E-005   3.7702166927050212E-005
   19.138935606845820        19.999999986806113       -4.3454835770893805E-005   8.1157002697944023E-005
   21.080147743256571        19.999999971078793       -8.8221662878681153E-005   1.6937866557662518E-004
   23.137832607851966        19.999999938411506       -1.7417241671069202E-004   3.4355108228731720E-004
   25.318978564323086        19.999999872330058       -3.3502842708739818E-004   6.7857950937471538E-004
   27.630993278182473        19.999999741937494       -6.2891296084182171E-004   1.3074924702165371E-003
   30.081728874873424        19.999999490616275       -1.1537522365451900E-003   2.4612447067617269E-003
   32.679508607365833        19.999999016899196       -2.0709472238597173E-003   4.5321919306214441E-003
   35.433155123807786        19.999998142799033       -3.6409094266952684E-003   8.1731013573167130E-003
   38.352020431236255        19.999996562519712       -6.2751619190606379E-003   1.4448263276377351E-002
   41.446017657110431        19.999993761189508       -1.0610931307840634E-002   2.5059194584217986E-002
   44.725654716537058        19.999988888857107       -1.7615391382158736E-002   4.2674585966376723E-002
   48.202069999529286        19.999980569305272       -2.8727792226203246E-002   7.1402378192579968E-002
   51.887070199501046        19.999966616184192       -4.6048374269545764E-002  0.11745075246212573     
   55.793170411471110        19.999943620625199       -7.2582910440895876E-002  0.19003366290302159     
   59.933636636159378        19.999906365184810      -0.11255057856112745       0.30258424146414903     
   64.322530834328944        19.999847009332633      -0.17176027214374323       0.47434451360789226     
   68.974758684388689        19.999753982771896      -0.25805610227718423       0.73240061588507643     
   73.906120205452012        19.999610516122161      -0.38182656026445017        1.1142271761495266     
   79.133363417779137        19.999392735730389      -0.55656367010564767        1.6707908462551742     
   84.674241222845893        19.999067252676408      -0.79944884864235866        2.4702396948975327     
   90.547571696216650        19.998588187466297       -1.1319318645694150        3.6021715594669477     
   96.773301997989648        19.997893593178503       -1.5802593615158431        5.1824309209827906     
   103.37257611786903        19.996901271905244       -2.1759012814139496        7.3583322023967401     
   110.36780668494117        19.995504022018324       -2.9558187058455938        10.314150908242334     
   117.78275108603765        19.993564405403582       -3.9625165252179899        14.276667433460325     
   125.64259215119992        19.990909181054043       -5.2438299710120804        19.520497404472405     
   133.97402368027193        19.987323609489788       -6.8524058016391436        26.372903206111548     
   142.80534110108826        19.982545885502098       -8.8448564148805620        35.217759620992112     
   152.16653756715357        19.976261998422530       -11.280587119678170        46.498346740670286     
   162.08940582118279        19.968101343678459       -14.220321242971197        60.718667983641481     
   172.60764617045376        19.957633412354902       -17.724372185200526        78.443040168842003     
   183.75698094068099        19.944365864474605       -21.850733342558783        100.29377351140079     
   195.57527579712186        19.927744246922174       -26.653073607399506        126.94684711880029     
   208.10266834494917        19.907153551160476       -32.178736162745508        159.12558328154580     
   221.38170444564611        19.881921724157625       -38.466840565685402        197.59242384723120     
   235.45748271238489        19.851325154858166       -45.546582662893989        243.13900651012520     
   250.37780767512800        19.814596065364093       -53.435814561069400        296.57482107119461     
   266.19335213563568        19.770931647773047       -62.139969222489817        358.71479029368442     
   282.95782926377382        19.719504710358436       -71.651373210800315        430.36616350448475     
   300.72817501960026        19.659475534908367       -81.948968727838732        512.31513223232344     
   319.56474152077629        19.590004603184962       -92.998444266179249        605.31357649850270     
   339.53150201202288        19.510265823577097       -104.75275489722108        710.06633139572375     
   346.46677257446089        19.481853302159568       -108.83514968628161        818.90148108200538     
   349.47790060617797        19.469383948332130       -110.60728673138881        929.50876781339423     
   349.80121801668531        19.468043527867231       -110.79755494626927        1040.3063227596635     
   350.14393447182312        19.466620953403964       -110.99923522524723        1151.3055579849108     
   350.50721391426919        19.465111091882601       -111.21301189094967        1262.5185698758605     
   350.89229012326200        19.463508470622163       -111.43960948499523        1373.9581793608559     
   351.30047090479439        19.461807260133682       -111.67979573895846        1485.6379750998144     
   351.73314253321871        19.460001249321813       -111.93438410715376        1597.5723592069683     
   352.19177445934849        19.458083818803800       -112.20423643989136        1709.7765956468597     
   352.67792430104606        19.456047912188822       -112.49026580346874        1822.2668614503284     
   353.19324313324546        19.453886005146654       -112.79343945320009        1935.0603009035285     
   353.73948109537685        19.451590072079348       -113.11478196565163        2048.1750828691802     
   354.31849333523610        19.449151550193310       -113.45537853623367        2161.6304614054138     
   354.93224630948691        19.446561300750943       -113.81637844795029        2275.4468398533641     
   355.58282446219278        19.443809567261813       -114.19899871689474        2389.6458385702590     
   356.27243730406099        19.440885930352103       -114.60452791961788        2504.2503664898768     
   356.85722899396524        19.438401827292321       -114.94838132008907        2619.1987478099659     
   357.44202068386949        19.435912844671297       -115.29219333753544        2734.4909411475014     
   358.06189987516802        19.433269070823062       -115.65658738817348        2850.1475285356751     
   358.71897181794446        19.430460561567877       -116.04278949430076        2966.1903180299760     
   359.41546807728747        19.427476698208999       -116.45209758132994        3082.6424156113058     
   360.15375411219105        19.424306161407792       -116.88588945430494        3199.5283050656108     
   360.93633730918884        19.420936784006305       -117.34561136200760        3316.8739164276185     
   361.27611615132855        19.419472278518992       -117.54519373822009        3434.4191101658384     
   361.63628172399666        19.417918083554813       -117.75672924109662        3552.1758394069352     
   362.01805723102484        19.416268603708311       -117.98093302264206        3670.1567724295774     
   362.42273926847474        19.414517874615214       -118.21856154453623        3788.3753339741138     
   362.85170222817163        19.412659544257988       -118.47041608186844        3906.8457500559821     
   363.30640296545033        19.410686846171902       -118.73734531877469        4025.5830953747568     
   363.78838574696573        19.408592570634816       -119.02024808451962        4144.6033434592764     
   364.29928749537208        19.406369033674412       -119.32007623593171        4263.9234196952084     
   364.84084334868282        19.404008043712249       -119.63783769212125        4383.5612573873295     
   365.41489255319220        19.401500865648128       -119.97459962721443        4503.5358570145436     
   366.02338470997211        19.398838182171200       -120.33149182676728        4623.8673488413106     
   366.66838639615884        19.396010052065584       -120.70971021317740        4744.5770590544880     
   367.01844171128607        19.394473506883617       -120.91495147537252        4865.4920105298606     
   367.38950034532098        19.392842887905243       -121.13247623640041        4986.6244867662608     
   367.78282249739794        19.391112328001231       -121.36301842425998        5107.9875051905210     
   368.19974397859954        19.389275575100068       -121.60735420317437        5229.5948593936955     
   368.64168074867325        19.387325971254047       -121.86630558270635        5351.4611649764020     
   369.11013372495137        19.385256424646325       -122.14074305765290        5473.6019080340548     
   369.60669387980619        19.383059379498928       -122.43158838896152        5596.0334964230160     
   370.13304764395230        19.380726783709715       -122.73981753150080        5718.7733139545171     
   370.69098263394716        19.378250054031344       -123.06646371428887        5841.8397776688062     
   370.99378511171716        19.376904662231698       -123.24371931990349        5965.0834969887101     
   371.31475573815339        19.375477163134747       -123.43158307193234        6088.5150800606425     
   371.65498460217577        19.373962467166944       -123.63068918694364        6212.1457692475860     
   372.01562719803951        19.372355154165508       -123.84170816353969        6335.9874774111258     
   372.39790834965504        19.370649456021045       -124.06535015752519        6460.0528275686511     
   372.80312637036752        19.368839233093912       -124.30236727755552        6584.3551948462064     
   373.23265747232273        19.366917948900650       -124.55355600591493        6708.9087508521216     
   373.68796044039527        19.364878642931423       -124.81975974997815        6833.7285106021000     
   374.17058158655215        19.362713901447560       -125.10187152999283        6958.8303821320924     
   374.68216000147845        19.360415826095029       -125.40083680874224        7084.2312189408349     
   375.22443312130036        19.357976000155791       -125.71765646865907        7209.9488754094937     
   375.51873558889008        19.356650727725260       -125.88957732221375        7335.8384527317075     
   375.83069620453523        19.355244658597204       -126.07178394024835        7461.9102366719562     
   376.16137445711905        19.353752793856987       -126.26489111155637        7588.1751277835128     
   376.51189340485791        19.352169811442060       -126.46954859691473        7714.6446763804279     
   376.88344348946111        19.350490048915226       -126.68644455330467        7841.3311209337326     
   377.27728657914048        19.348707480534554       -126.91630775380496        7968.2474286875376     
   377.69476025420062        19.346815692655380       -127.15990992838316        8095.4073386159207     
   378.13728234976435        19.344807857331642       -127.41806823096999        8222.8254068468905     
   378.60635577106194        19.342676703972391       -127.69164783826943        8350.5170546851605     
   379.10357359763736        19.340414488896908       -127.98156468573470        8478.4986193708955     
   379.63062449380732        19.338012962618414       -128.28878834606874        8606.7874077169636     
   380.18929844374748        19.335463334671964       -128.61434505553697        8735.4017527725009     
   380.78149283068404        19.332756235786043       -128.95932089314914        8864.3610736656501     
   381.40921888083682        19.329881677180566       -129.32486511743357        8993.6859387830846     
   382.07460849399877        19.326829006755425       -129.71219366524636        9123.3981324483302     
   382.77992148395043        19.323586861913661       -130.12259281635252        9253.5207252646833     
   383.08615145667568        19.322178020171116       -130.30074831031649        9383.8214735749989     
   383.41075522776441        19.320683310162565       -130.48955502997782        9514.3110286049759     
   383.75483522511848        19.319097421663251       -130.68964916211564        9645.0006777670915     
   384.11956002231381        19.317414701968051       -130.90170255381247        9775.9023803209038     
   384.50616830734083        19.315629137265702       -131.12642663490738        9907.0288069558119     
   384.91597308946950        19.313734328364770       -131.36457469188559        10038.393381647698     
   385.35036615852590        19.311723464660613       -131.61694426371423        10170.010325911413     
   385.81082281172570        19.309589296204198       -131.88437966479631        10301.894705576209     
   386.29890686411744        19.307324103721776       -132.16777464018716        10434.062480216397     
   386.81627595965273        19.304919666421533       -132.46807515816587        10566.530555374562     
   387.36468720092012        19.302367227409555       -132.78628234510484        10699.316837719667     
   387.94600311666352        19.299657456522237       -133.12345556732114        10832.440293286989     
   388.56219798735157        19.296780410366235       -133.48071566442380        10965.921008951413     
   389.21536455028087        19.293725489339149       -133.85924833802429        11099.780257289436     
   389.90772110698595        19.290481391385494       -134.26030769933772        11234.040564988774     
   390.64161905709335        19.287036062221834       -134.68521997827705        11368.725784967051     
   391.41955088420718        19.283376641743306       -135.13538739586477        11503.861172362916     
   392.24415862094781        19.279489406300122       -135.61229220046306        11639.473464563380     
   393.11824282189292        19.275359706507782       -136.11750086698297        11775.590965430363     
   394.04477207489469        19.270971900228023       -136.65266845630416        11912.243633886668     
   395.02689308307657        19.266309280329505       -137.21954312996098        12049.463177016629     
   396.06794135174937        19.261353996807511       -137.81997081233089        12187.283147828959     
   397.17145251654256        19.256086972811083       -138.45589998924132        12325.739047818201     
   398.34117435122334        19.250487814093841       -139.12938662773934        12464.868434445940     
   399.58107949598497        19.244534711371735       -139.84259919680687        12604.711033642747     
   400.89537894943231        19.238204335037491       -140.59782376274805        12745.308857405495     
   402.28853637008649        19.231471721648170       -141.39746912576996        12886.706326531264     
   403.76528323597989        19.224310151569522       -142.24407195569361        13028.950398486959     
   405.33063491382694        19.216691017129857       -143.14030187466622        13172.090700361625     
   406.98990769234479        19.208583680608047       -144.08896642317654        13316.179666784801     
   408.74873683757369        19.199955321356192       -145.09301583242822        13461.272682617229     
   410.61309573151635        19.190770771339437       -146.15554751146658        13607.428230128697     
   412.58931615909557        19.180992338365417       -147.27981014145197        13754.708040270149     
   414.68410981232955        19.170579616275788       -148.46920725228188        13903.177247522430     
   416.90459108475756        19.159489281385497       -149.72730013872652        14052.904547661155     
   419.25830123353126        19.147674874484913       -151.05780995441754        14203.962357615574     
   421.75323399123135        19.135086567768955       -152.46461880213215        14356.426976417706     
   424.39786271439345        19.121670970989410       -153.95189491457677        14510.378871332283     
   427.20116916094526        19.107370680391874       -155.52372580550477        14665.902597137787     
   430.17267399429022        19.092124202492684       -157.18446979305185        14823.087066930839     
   433.32246911763588        19.075865582642486       -158.93863649503669        14982.025703425876     
   436.66125194838224        19.058524090569172       -160.79087972846011        15142.816583154336     
   440.20036174897342        19.040023889666951       -162.74598780312610        15305.562570957462     
   443.95181813760007        19.020283690776139       -164.80887069265219        15470.371441650113     
   447.92836190954426        18.999216391706060       -166.98454346778885        15637.355985117902     
   452.14349830780515        18.976728704383284       -169.27810529986914        15806.634090417770     
   456.61154288996170        18.952720772261550       -171.69471330172075        15978.328803719491     
   461.34767014704761        18.927085781504616       -174.23955047776505        16152.568354197256     
   466.36796503955867        18.899709570438386       -176.91778710273954        16329.486141299994     
   471.68947762562038        18.870470242850949       -179.73453492884190        16509.220676228837     
   477.33028096684581        18.839237782559728       -182.69480180020631        16691.915478029045     
   482.97108430807123        18.807775479341625       -185.62902870958951        16877.544506738635     
   488.61188764929665        18.776092142981657       -188.53671922536248        17066.081225963997     
   494.25269099052207        18.744196464148366       -191.41741291486085        17257.498638878857     
   499.89349433174749        18.712097010684673       -194.27068571599165        17451.769324594847     
