 #              _____________________  _______________________             #
 #              ___  __ \__  __ \_  / / /_  /___  ____/_  ___/             #
 #              __  / / /_  /_/ /  / / /_  __/_  __/  _____ \              #
 #              _  /_/ /_  _, _// /_/ / / /_ _  /___  ____/ /              #
 #              /_____/ /_/ |_| \____/  \__/ /_____/  /____/               #
 #                                                                         #
  
 #        time                      T            heat flux [W.L-2]   in    x              directions   cumulative flux
 #-----------------------------------------------------------------------------------------------

   0.0000000000000000          277.97960000000000          -14.244254984152104          0.0000000000000000     
   1.0000000000000000          277.97975131459890          -14.338053984573309          0.0000000000000000     
   2.0060000000000002          277.97989479784326          -14.423628077597691          14.423628077597691     
   3.0180360000000004          277.98003106393469          -14.501708764238188          29.012347094421308     
   4.0361442160000003          277.98016067701457          -14.572963782175758          43.760711068679335     
   5.0603610812960005          277.98028415515819          -14.638002343763846          58.663781520692559     
   6.0907232477837763          277.98040197406141          -14.697379972793298          73.717085964491119     
   7.1272675872704792          277.98051457044056          -14.751602966358318          88.916579556075575     
   8.1700311927941023          277.98062234516891          -14.801132511290389          104.25860967864624     
   9.2190513799508675          277.98072566616651          -14.846388478932473          119.73988325794224     
   10.274365688230573          277.98082487106444          -14.887752922837716          135.35743661540113     
   11.336011882359955          277.98092026965850          -14.925573302358929          151.10860768065808     
   12.404027953654115          277.98101214616906          -14.960165451455566          166.99101039574177     
   13.478452121376039          277.98110076132093          -14.991816313521440          183.00251115647262     
   14.559322834104295          277.98118635425715          -15.020786460501688          199.14120714782590     
   15.646678771108920          277.98126914429946          -15.047312412772277          215.40540644006381     
   16.740558843735574          277.98134933256614          -15.071608775588421          231.79360972241091     
   17.841002196797987          277.98142710345934          -15.093870209026294          248.30449356287787     
   18.948048209978776          277.98150262602945          -15.114273241983337          264.93689508838753     
   20.061736499238648          277.98157605522817          -15.132977946471316          281.68979799158137     
   21.182106918234080          277.98164753305679          -15.150129482169154          298.56231977664390     
   22.309199559743483          277.98171718961737          -15.165859522956383          315.55370016480441     
   23.443054757101944          277.98178514407567          -15.180287576535173          332.66329058831383     
   24.583713085644554          277.98185150553905          -15.193522205280509          349.89054470695231     
   25.731215364158420          277.98191637385906          -15.205662159315178          367.23500988998040     
   26.885602656343369          277.98197984036074          -15.216797427421593          384.69631960963062     
   28.046916272281429          277.98204198850488          -15.227010215595771          402.27418670048479     
   29.215197769915118          277.98210289448872          -15.236375858606632          419.96839744263463     
   30.390488956534607          277.98216262778692          -15.244963671576141          437.77880643223477     
   31.572831890273815          277.98222125163892          -15.252837747688549          455.70533220803020     
   32.762268881615455          277.98227882348368          -15.260057705351267          473.74795360440481     
   33.958842494905149          277.98233539534709          -15.266679391914666          491.90670680810126     
   35.162595549874581          277.98239101418324          -15.272755546994219          510.18168309785835     
   36.373571123173825          277.98244572217243          -15.278336427934855          528.57302724783563     
   37.591812549912866          277.98249955697963          -15.283470403432865          547.08093658163477     
   38.817363425212342          277.98255255197319          -15.288204515735826          565.70566066316303     
   40.050267605763615          277.98260473640761          -15.292585015605344          584.44750161462980     
   41.290569211398200          277.98265613557123          -15.296657870646365          603.30681505181224     
   42.538312626666588          277.98270677090062          -15.300469250446413          622.28401163010346     
   43.793542502426590          277.98275666006447          -15.304065989642433          641.37955919551268     
   45.056303757441150          277.98280581701522          -15.307496029100827          660.59398553431765     
   46.326641579985797          277.98285425201476          -15.310808838323396          679.92788171828693     
   47.604601429465710          277.98290197162993          -15.314055817202094          699.38190603943860     
   48.890229038042506          277.98294897870369          -15.317290680598390          718.95678853205618     
   50.183570412270761          277.98299527230017          -15.320569824121634          738.65333607707544     
   51.484671834744383          277.98304084762634          -15.323952672027529          758.47243808452424     
   52.793579865752847          277.98308569593132          -15.327502007813804          778.41507274985815     
   54.110341344947365          277.98312980438328          -15.331284286805493          798.48231387853173     
   55.435003393017048          277.98317315592612          -15.335369930630819          818.67533827238424     
   56.767613413375152          277.98321572911726          -15.339833604464655          838.99543367192257     
   58.108219093855404          277.98325749794651          -15.344754475309484          859.44400724565480     
   59.456868408418536          277.98329843163856          -15.350216452291559          880.02259461819824     
   60.813609618869044          277.98333849443850          -15.356308407609387          900.73286942634070     
   62.178491276582257          277.98337764538371          -15.363124378927003          921.57665339250786     
   63.551562224241749          277.98341583806058          -15.370763751266361          942.55592690165452     
   64.932871597587194          277.98345302035068          -15.379331420256904          963.67284006923614     
   66.322468827172713          277.98348913416339          -15.388937933853816          984.92972428309974     
   67.720403640135743          277.98352411516021          -15.399699614450732          1006.3291042037897     
   69.126726061976555          277.98355789246949          -15.411738659952949          1027.8737102048262     
   70.541486418348413          277.98359038839294          -15.425183223216866          1049.5664912326388     
   71.964735336858510          277.98362151810682          -15.440167471286228          1071.4106280667568     
   73.396523748879659          277.98365118935726          -15.456831622342140          1093.4095469568479     
   74.836902891372944          277.98367930215198          -15.475321961962596          1115.5669336142823     
   76.285924308721178          277.98370574844881          -15.495790837356132          1137.8867475328486     
   77.743639854573502          277.98373041184340          -15.518396630541494          1160.3732366134079     
   79.210101693700949          277.98375316725657          -15.543303710653765          1183.0309520663320     
   80.685362303863158          277.98377388062244          -15.570682364442213          1205.8647635629611     
   82.169474477686336          277.98379240857912          -15.600708706549305          1228.8798746083478     
   83.662491324552448          277.98380859816314          -15.633564569607454          1252.0818381063530     
   85.164466272499766          277.98382228650746          -15.669437373518130          1275.4765720859291     
   86.675453070134765          277.98383330054656          -15.708519975683924          1299.0703755587363     
   88.195505788555579          277.98384145672799          -15.751010501735726          1322.8699444762692     
   89.724678823286908          277.98384656073171          -15.797112156991554          1346.8823877537027     
   91.263026896226634          277.98384840719928          -15.847033020083444          1371.1152433285113     
   92.810605057603993          277.98384677947280          -15.900985817450842          1395.5764942186286     
   94.367468687949611          277.98384144934568          -15.959187680876786          1420.2745845468760     
   95.933673500077305          277.98383217682584          -16.021859887398104          1445.2184354960596     
   97.509275541077770          277.98381870991153          -16.089227582041044          1470.4174611584699     
   99.094331194324241          277.98380078438356          -16.161519484968423          1495.8815842446550     
   100.68889718149019          277.98377812361082          -16.238967581615615          1521.6212516127810     
   102.29303056457913          277.98375043837427          -16.321806798749506          1547.6474495831608     
   103.90678874796660          277.98371742670685          -16.410274664886654          1573.9717189987641     
   105.53022948045439          277.98367877375267          -16.504610957571487          1600.6061699951717     
   107.16341085733713          277.98363415164516          -16.605057336915937          1627.5634964412166     
   108.80639132248115          277.98358321940492          -16.711856967456313          1654.8569900135940     
   110.45922967041604          277.98352562285936          -16.825254128159632          1682.5005538672440     
   112.12198504843853          277.98346099458252          -16.945493812473352          1710.5087158651934     
   113.79471695872917          277.98338895385803          -17.072821318654327          1738.8966413308030     
   115.47748526048154          277.98330910666516          -17.207481832893421          1767.6801452884301     
   117.17035017204444          277.98322104568695          -17.349720004236556          1796.8757041558385     
   118.87337227307670          277.98312435034353          -17.499779515211998          1826.5004668572280     
   120.58661250671516          277.98301858684908          -17.657902647690037          1856.5722653241203     
   122.31013218175545          277.98290330829298          -17.824329845487828          1887.1096243530528     
   124.04399297484598          277.98277805474623          -17.999299276296615          1918.1317707926885     
   125.78825693269505          277.98264235339263          -18.183046393017484          1949.6586420324877     
   127.54298647429123          277.98249571868496          -18.375803496954997          1981.7108937687433     
   129.30824439313696          277.98233765252570          -18.577799303830226          2014.3099070250189     
   131.08409385949579          277.98216764447307          -18.789258514374598          2047.4777944067584     
   132.87059842265276          277.98198517197119          -19.010401390671550          2081.2374055716496     
   134.66782201318867          277.98178970060491          -19.241443340032163          2115.6123319003432     
   136.47582894526781          277.98158068437834          -19.482594507604755          2150.6269103542559     
   138.29468391893943          277.98135756601647          -19.734059379274431          2186.3062265100452     
   140.12445202245306          277.98111977729047          -19.996036396091611          2222.6761167627951     
   141.96519873458777          277.98086673936427          -20.268717581222468          2259.7631696920421     
   143.81698992699529          277.98059786316338          -20.552288181297403          2297.5947265886107     
   145.67989186655726          277.98031254976434          -20.846926322783659          2336.1988811419101     
   147.55397121775661          277.98001019080345          -21.152802684190011          2375.6044782894592     
   149.43929504506315          277.97969016890511          -21.470080185900464          2415.8411122344496     
   151.33593081533354          277.97935185812798          -21.798913698051273          2456.9391236387846     
   153.24394640022555          277.97899462442803          -22.139449766663322          2498.9295960003424     
   155.16341007862690          277.97861782613722          -22.491826359956711          2541.8443512278245     
   157.09439053909867          277.97822081445798          -22.856172634657483          2585.7159444273207     
   159.03695688233327          277.97780293396954          -23.232608722491729          2630.5776579162380     
   160.99117862362726          277.97736352314837          -23.621245538013152          2676.4634944836625     
   162.95712569536903          277.97690191489892          -24.022184607937589          2723.4081699178723     
   164.93486844954126          277.97641743709505          -24.435517921200649          2771.4471048215501     
   166.92447766023849          277.97590941312910          -24.861327801430441          2820.6164157399294     
   168.92602452619994          277.97537716246973          -25.299686800457057          2870.9529056258743     
   170.93958067335714          277.97482000122523          -25.750657613240410          2922.4940536681015     
   172.96521815739729          277.97423724271215          -26.214293014643040          2975.2780045111163     
   175.00300946634167          277.97362819802743          -26.690635816205031          3029.3435568932855     
   177.05302752313972          277.97299217662368          -27.179718844597858          3084.7301517343590     
   179.11534568827855          277.97232848688486          -27.681564939421481          3141.4778597006007     
   181.19003776240822          277.97163643670297          -28.196186971054985          3199.6273682786582     
   183.27717798898269          277.97091533405313          -28.723587877718639          3259.2199683891281     
   185.37684105691659          277.97016448756671          -29.263760720674554          3320.2975405700972     
   187.48910210325809          277.96938320710109          -29.816688757450674          3382.9025407621962     
   189.61403671587763          277.96857080430499          -30.382345531841310          3447.0779857255920     
   191.75172093617289          277.96772659317810          -30.960694980381042          3512.8674381201599     
   193.90223126178992          277.96684989062504          -31.551691554483906          3580.3149912798035     
   196.06564464936065          277.96594001700015          -32.155280356228545          3649.4652537089837     
   198.24203851725682          277.96499629664595          -32.771397289010906          3720.3633333334292     
   200.43149074836035          277.96401805842061          -33.399969220442586          3793.0548215327212     
   202.63407969285052          277.96300463621537          -34.040914157088665          3867.5857769827630     
   204.84988417100763          277.96195536946169          -34.694141430912190          3944.0027093370682     
   207.07898347603367          277.96086960362504          -35.359551894901067          4022.3525627714184     
   209.32145737688987          277.95974669068721          -36.037038129283431          4102.6826994206012     
   211.57738612115119          277.95858598961433          -36.726484655061462          4185.0408827297724     
   213.84685043787809          277.95738686681074          -37.427768156232759          4269.4752607469673     
   216.12993154050537          277.95614869655765          -38.140757707793213          4356.0343493777309     
   218.42671112974841          277.95487086143646          -38.865315010778779          4444.7670156264958     
   220.73727139652689          277.95355275273550          -39.601294632103681          4535.7224608451115     
   223.06169502490604          277.95219377083953          -40.348544249222357          4628.9502040097186     
   225.40006519505548          277.95079332560215          -41.106904896259607          4724.5000650401198     
   227.75246558622581          277.94935083670026          -41.876211210247071          4822.4221481730392     
   230.11898037974316          277.94786573397113          -42.656291673321043          4922.7668253912352     
   232.49969426202162          277.94633745773183          -43.446968848925103          5025.5847199057043     
   234.89469242759375          277.94476545908242          -44.248059607522791          5130.9266896772187     
   237.30406058215931          277.94314920019275          -45.059375342761754          5238.8438109649596     
   239.72788494565228          277.94148815457459          -45.880722174334871          5349.3873618802718     
   242.16625225532619          277.93978180733887          -46.711901139090834          5462.6088059262747     
   244.61924976885814          277.93802965544069          -47.552708370352768          5578.5597755030003     
   247.08696526747130          277.93623120791045          -48.402935266496364          5697.2920553593640     
   249.56948705907612          277.93438598607355          -49.262368650470776          5818.8575659765256     
   252.06690398143058          277.93249352375852          -50.130790923184847          5943.3083468737177     
   254.57930540531916          277.93055336749410          -51.007980212492612          6070.6965398315178     
   257.10678123775108          277.92856507669399          -51.893710520023404          6201.0743720328865     
   259.64942192517759          277.92652822383110          -52.787751869162847          6334.4941391306083     
   262.20731845672867          277.92444239460008          -53.689870456487775          6471.0081882559325     
   264.78056236746903          277.92230718806690          -54.599828807519330          6610.6689009859683     
   267.36924574167386          277.92012221680636          -55.517385940422599          6753.5286762973838     
   269.97346121612389          277.91788710702599          -56.442297538087985          6899.6399135361535     
   272.59330198342064          277.91560149867610          -57.374316130009092          7049.0549954379121     
   275.22886179532117          277.91326504554451          -58.313191284690582          7201.8262712367177     
   277.88023496609310          277.91087741533710          -59.258669813370133          7358.0060399035192     
   280.54751637588964          277.90843828974107          -60.210495984328468          7517.6465335552384     
   283.23080147414498          277.90594736447360          -61.168411748703178          7680.7999010793355     
   285.93018628298984          277.90340434931204          -62.132156976216912          7847.5181920160794     
   288.64576740068776          277.90080896810861          -63.101469700716905          8017.8533407419791     
   291.37764200509190          277.89816095878700          -64.076086374019084          8191.8571509952471     
   294.12590785712246          277.89546007332405          -65.055742128561647          8369.5812807869279     
   296.89066330426522          277.89270607771266          -66.040171045118655          8551.0772277324850     
