 #              _____________________  _______________________             #
 #              ___  __ \__  __ \_  / / /_  /___  ____/_  ___/             #
 #              __  / / /_  /_/ /  / / /_  __/_  __/  _____ \              #
 #              _  /_/ /_  _, _// /_/ / / /_ _  /___  ____/ /              #
 #              /_____/ /_/ |_| \____/  \__/ /_____/  /____/               #
 #                                                                         #
  
 #        time                      T            heat flux [W.L-2]   in    x              directions   cumulative flux
 #-----------------------------------------------------------------------------------------------

   0.0000000000000000        5.2374000000000001        5.8623986253570273        5.8623986253570273     
   1.0000000000000000        5.2373994077438004        5.8625547560030125        11.724953381360040     
   1.9540000000000002        5.2373988734883437        5.8626915951094114        17.587644976469452     
   2.8641160000000001        5.2373983896265743        5.8628121477977837        23.450457124267235     
   3.8288389600000006        5.2373979033844149        5.8629298662519718        29.313386990519206     
   4.8514452976000007        5.2373974153668632        5.8630446511164944        35.176431641635702     
   5.9354080154560007        5.2373969261144548        5.8631565919602995        41.039588233596000     
   7.0844084963833609        5.2373964360827108        5.8632660385487352        46.902854272144737     
   8.3023490061663630        5.2373959456183172        5.8633736890378945        52.766227961182629     
   9.5933659465363448        5.2373954549310344        5.8634806971145759        58.629708658297204     
   10.961843903328527        5.2373949640600541        5.8635887997219083        64.493297458019114     
   12.412430537528239        5.2373944728331949        5.8637004663742207        70.356997924393340     
   13.950052369779934        5.2373939808170107        5.8638190701087440        76.220816994502087     
   15.579931511966731        5.2373934872555878        5.8639490788797257        82.084766073381815     
   17.307603402684734        5.2373929909955770        5.8640962645827646        87.948862337964584     
   19.138935606845820        5.2373924903948774        5.8642679249996643        93.813130262964251     
   21.080147743256571        5.2373919832124098        5.8644731117620390        99.677603374726289     
   23.137832607851966        5.2373914664765913        5.8647228550881048        105.54232622981439     
   25.318978564323086        5.2373909363304652        5.8650303736697316        111.40735660348412     
   27.630993278182473        5.2373903878519785        5.8654112558006162        117.27276785928473     
   30.081728874873424        5.2373898148484663        5.8658835959253111        123.13865145521004     
   32.679508607365833        5.2373892096249364        5.8664680693716278        129.00511952458166     
   35.433155123807786        5.2373885627260330        5.8671879273801126        134.87230745196177     
   38.352020431236255        5.2373878626512953        5.8680688947799844        140.74037634674175     
   41.446017657110431        5.2373870955420827        5.8691389539789354        146.60951530072069     
   44.725654716537058        5.2373862448360518        5.8704280012880821        152.47994330200876     
   48.202069999529286        5.2373852908806153        5.8719673650798487        158.35191066708862     
   51.887070199501046        5.2373842104901795        5.8737891796744970        164.22569984676312     
   55.793170411471110        5.2373829764226585        5.8759256140445340        170.10162546080767     
   59.933636636159378        5.2373815567386250        5.8784079602209705        175.98003342102865     
   63.444751994695032        5.2373802660870226        5.8806604075810212        181.86069382860967     
   67.166534274742830        5.2373787933608531        5.8832015916358742        187.74389542024554     
   70.888316554790620        5.2373772093101021        5.8858835263863822        193.62977894663192     
   74.833405771641281        5.2373753975605961        5.8888686393690879        199.51864758600101     
   79.015200341502975        5.2373733193154983        5.8921734763923066        205.41082106239332     
   83.447902585556378        5.2373709287800798        5.8958117766335123        211.30663283902683     
   88.146566964252983        5.2373681716312781        5.8997936455477005        217.20642648457454     
   93.127151205671382        5.2373649830961000        5.9041246821372111        223.11055116671176     
   98.406570501574890        5.2373612855580802        5.9088050812398683        229.01935624795163     
   104.00275495523260        5.2373569856079429        5.9138287363201441        234.93318498427178     
   109.93471047610979        5.2373519704569045        5.9191823729353095        240.85236735720707     
   116.22258332823959        5.2373461036402675        5.9248447472949213        246.77721210450198     
   122.88772855149719        5.2373392199564712        5.9307859477595235        252.70799805226150     
   129.55287377475480        5.2373316239414685        5.9366253109930245        258.64462336325454     
   136.61792771140784        5.2373227141501033        5.9426589768832825        264.58728234013785     
   144.10688488426010        5.2373122366900606        5.9488379947293231        270.53612033486718     
   152.04517948748347        5.2372998884934798        5.9551045231078605        276.49122485797506     
   160.45977176690025        5.2372853096991534        5.9613919675387077        282.45261682551376     
   169.37923958308204        5.2372680756627794        5.9676253734498514        288.42024219896359     
   178.83387546823474        5.2372476888075692        5.9737220886044398        294.39396428756805     
   188.85578950649659        5.2372235705766457        5.9795926981224063        300.37355698569047     
   198.87770354475845        5.2371968313403272        5.9848639595749287        306.35842094526538     
   209.50093242531602        5.2371654279635376        5.9897799412853230        312.34820088655073     
   220.12416130587360        5.2371308699064656        5.9940346558998270        318.34223554245057     
   230.74739018643118        5.2370930820024100        5.9976448551393347        324.33988039758992     
   242.00801279982221        5.2370493322663476        6.0007734430290967        330.34065384061904     
   253.94427277001671        5.2369987568594780        6.0033413824794648        336.34399522309849     
   266.59670833842284        5.2369404011571969        6.0052697742762859        342.34926499737480     
   280.00829004093339        5.2368732182705244        6.0064811624847181        348.35574615985951     
   294.22456664559456        5.2367960690823807        6.0069008573849692        354.36264701724446     
   308.44084325025574        5.2367130684003733        6.0065265907208820        360.36917360796537     
   323.51009645119655        5.2366186494347593        6.0053189053236125        366.37449251328900     
   339.48350484419382        5.2365115308486931        6.0032192933916155        372.37771180668062     
   356.41531774077094        5.2363903544439534        6.0001749043352923        378.37788671101589     
   374.36303941114267        5.2362536912279616        5.9961393636611593        384.37402607467703     
   393.38762438173671        5.2361000487910214        5.9910734289999228        390.36509950367696     
   412.41220935233076        5.2359380939249505        5.9853270745696889        396.35042657824664     
   431.43679432292481        5.2357682988727170        5.9789964805698288        402.32942305881647     
   450.46137929351886        5.2355911336665955        5.9721669897640242        408.30159004858052     
   470.62743936234858        5.2353956068529524        5.9644563423851649        414.26604639096570     
   492.00346303530807        5.2351802948730715        5.9558455118111144        420.22189190277680     
   513.37948670826756        5.2349575373043438        5.9468767302451964        426.16876863302201     
   534.75551038122705        5.2347279128452984        5.9376185639964714        432.10638719701848     
   557.41409547456408        5.2344774448677738        5.9275493082674382        438.03393650528591     
   581.43219567350138        5.2342047314517730        5.9166584115543985        443.95059491684032     
   606.89138188437494        5.2339083406527225        5.9049386488452082        449.85553356568550     
   633.87811926790084        5.2335868142962587        5.8923858522427999        455.74791941792830     
   662.48406089443836        5.2332386711504419        5.8789985301352337        461.62691794806352     
   691.09000252097587        5.2328840478055820        5.8655815446583865        467.49249949272189     
   719.69594414751339        5.2325237050916691        5.8521759948678280        473.34467548758971     
   750.01824227164309        5.2321361243120537        5.8380170078035558        479.18269249539327     
   782.15987828322056        5.2317198289357725        5.8230999009801563        485.00579239637341     
   816.23001245549278        5.2312733107036902        5.8074201428997627        490.81321253927320     
   852.34435467810124        5.2307950275600827        5.7909726632341982        496.60418520250738     
   888.45869690070970        5.2303125673987223        5.7747139821450579        502.37889918465243     
   919.08365910548173        5.2299008666268527        5.7610683972564827        508.13996758190893     
   951.54611904254011        5.2294620187009242        5.7467669362043603        513.88673451811326     
   984.00857897959850        5.2290211171632377        5.7326290425654243        519.61936356067872     
   1018.4187865128804        5.2285518580863179        5.7178246979943941        525.33718825867311     
   1054.8936064981592        5.2280527173326359        5.7023313454910234        531.03951960416418     
   1093.5569156825547        5.2275221050362735        5.6861237076225999        536.72564331178683     
   1134.5400234180140        5.2269583590113893        5.6691729786082927        542.39481629039517     
   1177.9821176176008        5.2263597361557075        5.6514458356579054        548.04626212605308     
   1221.4242118171876        5.2257603903753482        5.6339407292556833        553.68020285530872     
   1267.4728316687497        5.2251245808709728        5.6156113267472074        559.29581418205589     
   1313.5214515203118        5.2244885057975488        5.5974835296670786        564.89329771172299     
   1362.3329885629676        5.2238141713601447        5.5784646663249537        570.47176237804797     
   1414.0732178281826        5.2230994247082112        5.5584890985104618        576.03025147655842     
   1465.8134470933976        5.2223848016791665        5.5386607594924131        581.56891223605078     
   1517.5536763586126        5.2216703065218049        5.5189417550178375        587.08785399106864     
   1572.3983193797405        5.2209130072837500        5.4981164217285059        592.58597041279711     
   1627.2429624008685        5.2201556179176283        5.4773209061250121        598.06329131892210     
   1682.0876054219964        5.2193979090534413        5.4565072038063507        603.51979852272848     
   1728.5958627039129        5.2187549656931509        5.4388142934417676        608.95861281617022     
   1777.8946154227444        5.2180727343933784        5.4199754192137171        614.37858823538397     
   1827.1933681415760        5.2173894935618570        5.4010152798391635        619.77960351522313     
   1879.4500460235374        5.2166637157851863        5.3807365430380889        625.16034005826123     
   1934.8421245784166        5.2158921072488544        5.3589835085437176        630.51932356680493     
   1993.5577278465885        5.2150709008248421        5.3355703155877157        635.85489388239262     
   2055.7962673108505        5.2141957421596681        5.3102744378759326        641.16516832026855     
   2118.0348067751124        5.2133148430061080        5.2844210344496485        646.44958935471823     
   2184.0076586072305        5.2123732700408372        5.2562949371480823        651.70588429186625     
   2253.9388815492753        5.2113646609687052        5.2255578926832973        656.93144218454950     
   2328.0659778678428        5.2102814595293001        5.1918065325649918        662.12324871711451     
   2406.6406999655246        5.2091146384740163        5.1545609336561906        667.27780965077068     
   2485.2154220632065        5.2079262473266628        5.1156964964081437        672.39350614717887     
   2568.5046274867491        5.2066386801144233        5.0725105829303088        677.46601673010923     
   2651.7938329102917        5.2053195056010226        5.0271733526746267        682.49319008278383     
   2735.0830383338343        5.2039649240791528        4.9795332543883610        687.47272333717217     
   2823.3695960827895        5.2024847201021220        4.9262808294292544        692.39900416660146     
   2911.6561538317446        5.2009556070786793        4.8701230916504903        697.26912725825196     
   2999.9427115806998        5.1993730652861698        4.8109243212143928        702.08005157946639     
   3088.2292693296549        5.1977326528769865        4.7485648325882241        706.82861641205466     
   3176.5158270786101        5.1960300387870220        4.6829410824143727        711.51155749446900     
   3270.0995782925024        5.1941503986991062        4.6096090672739818        716.12116656174294     
   3369.2983545792285        5.1920681982027883        4.5275423062306723        720.64870886797360     
   3468.4971308659547        5.1898908665566363        4.4410668021065645        725.08977567008014     
   3567.6959071526808        5.1876133959937683        4.3501314746343898        729.43990714471454     
   3666.8946834394069        5.1852311451409729        4.2547067488094594        733.69461389352398     
   3772.0453863033363        5.1825831875091062        4.1485022207121478        737.84311611423618     
   3877.1960891672661        5.1798079219871180        4.0372564962096833        741.88037261044587     
   3988.6558342030316        5.1767183440408067        3.9137137748462996        745.79408638529219     
   4100.1155792387972        5.1734768694641833        3.7846144767426666        749.57870086203491     
   4218.2629089767088        5.1698661705937008        3.6416302362994593        753.22033109833433     
   4336.4102387146204        5.1660774748707752        3.4926341207392211        756.71296521907357     
   4454.5575684525320        5.1621083021470344        3.3377726336629743        760.05073785273657     
   4572.7048981904436        5.1579569241948251        3.1772086093563585        763.22794646209297     
   4697.9410677126298        5.1533505831688657        3.0008141635400176        766.22876062563296     
   4823.1772372348159        5.1485380603131823        2.8184473802791055        769.04720800591201     
   4948.4134067570021        5.1435198533728395        2.6303429139398080        771.67755091985180     
   5081.1637464505193        5.1379709735304591        2.4247942806704268        774.10234520052222     
   5213.9140861440364        5.1321948958039343        2.2133830836614945        776.31572828418371     
   5346.6644258375536        5.1261947819787794        1.9964083657469160        778.31213664993061     
   5479.4147655310708        5.1199744835587406        1.7741697444132651        780.08630639434386     
   5612.1651052245879        5.1135384918306599        1.5469659297243650        781.63327232406823     
   5744.9154449181051        5.1068918569969055        1.3150930829035101        782.94836540697179     
   5877.6657846116223        5.1000401151013683        1.0788434366295327        784.02720884360133     
   6010.4161243051394        5.0929892227216014       0.83850399661690334        784.86571284021818     
   6143.1664639986566        5.0857454955654084       0.59435555070166468        785.46006839091990     
   6275.9168036921737        5.0783155510261420       0.34667192652947365        785.80674031744934     
   6408.6671433856909        5.0707062548334738        9.5719439748703630E-002   785.90245975719802     
   6541.4174830792081        5.0629246717836338      -0.15824351044541127        786.06070326764348     
   6674.1678227727252        5.0549780204536532      -0.41496672669419815        786.47566999433764     
   6814.8831828478533        5.0463778352670374      -0.68990749179373978        787.16557748613138     
   6964.0414645274896        5.0370735728015115      -0.98417809835071146        788.14975558448214     
   7113.1997462071258        5.0275918059166509       -1.2809671201949806        789.43072270467712     
   7262.3580278867621        5.0179430907989797       -1.5799733731125865        791.01069607778970     
   7411.5163095663984        5.0081379301953506       -1.8809093077257975        792.89160538551550     
   7560.6745912460347        4.9981867313279515       -2.1835008160128373        795.07510620152834     
   7718.7823698264483        4.9874865971366198       -2.5057983045696250        797.58090450609802     
   7886.3766151216869        4.9759881126794179       -2.8488271051019463        800.42973161119994     
   8053.9708604169255        4.9643472635162320       -3.1929201216785579        803.62265173287847     
   8221.5651057121650        4.9525776742538028       -3.5377671487315623        807.16041888160998     
   8389.1593510074035        4.9406925854999999       -3.8830762112683943        811.04349509287840     
   8566.8092510203569        4.9279798657049199       -4.2492976673643632        815.29279276024272     
   8744.4591510333103        4.9151673248185581       -4.6154086536298529        819.90820141387258     
   8922.1090510462636        4.9022691008786934       -4.9811255662992346        824.88932698017186     
   9099.7589510592170        4.8892987516351232       -5.3461844091546915        830.23551138932658     
   9277.4088510721704        4.8762692475453502       -5.7103397026803675        835.94585109200693     
   9465.7177450859017        4.8624062105150516       -6.0950588628667415        842.04090995487365     
   9665.3251727404568        4.8476698124351509       -6.5011203271603604        848.54203028203403     
   9864.9326003950118        4.8329075025376067       -6.9051678710107849        855.44719815304484     
   10064.540028049567        4.8181340493302871       -7.3069510174039314        862.75414917044873     
   10264.147455704122        4.8033633438211654       -7.7062403906127050        870.46038956106145     
   10463.754883358677        4.7886084225199443       -8.1028265890784095        878.56321615013985     
   10663.754883358677        4.7738526024756798       -8.4972875184870098        887.06050366862689     
   10863.754883358677        4.7591363670495355       -8.8886696250972257        895.94917329372413     
   11063.754883358677        4.7444703987886792       -9.2768160225252334        905.22598931624941     
   11263.754883358677        4.7298646326072529       -9.6615849871511514        914.88757430340058     
   11463.754883358677        4.7153282938116323       -10.042848356934901        924.93042266033547     
   11663.754883358677        4.7008699345587122       -10.420490218412352        935.35091287874786     
   11863.754883358677        4.6864974732686155       -10.794405817310732        946.14531869605855     
   12063.754883358677        4.6722182261991723       -11.164501100839884        957.30981979689841     
