 #              _____________________  _______________________             #
 #              ___  __ \__  __ \_  / / /_  /___  ____/_  ___/             #
 #              __  / / /_  /_/ /  / / /_  __/_  __/  _____ \              #
 #              _  /_/ /_  _, _// /_/ / / /_ _  /___  ____/ /              #
 #              /_____/ /_/ |_| \____/  \__/ /_____/  /____/               #
 #                                                                         #
  
 #        time                      T            heat flux [W.L-2]   in    x              directions   cumulative flux
 #-----------------------------------------------------------------------------------------------

   0.0000000000000000        5.3307000000000002       -3.3483812690176298        3.3483812690176298     
   1.0000000000000000        5.3312589620551893       -3.4943423694566165        6.8427236384742463     
   1.9540000000000002        5.3317634519372827       -3.6222071306418226        10.464930769116069     
   2.8641160000000001        5.3322205906748845       -3.7347285654848430        14.199659334600913     
   3.8288389600000006        5.3326802269930118       -3.8443369310887503        18.043996265689664     
   4.8514452976000007        5.3331417975743669       -3.9506984542397121        21.994694719929377     
   5.9354080154560007        5.3336047874849069       -4.0535072508317640        26.048201970761141     
   7.0844084963833609        5.3340687411520999       -4.1524904588245448        30.200692429585686     
   8.3023490061663630        5.3345332725069339       -4.2474128730949001        34.448105302680588     
   9.5933659465363448        5.3349980739025060       -4.3380809049155955        38.786186207596181     
   10.961843903328527        5.3354629234283841       -4.4243457003228839        43.210531907919062     
   12.412430537528239        5.3359276902644428       -4.5061052744867967        47.716637182405861     
   13.950052369779934        5.3363923377606906       -4.5833055547011270        52.299942737106988     
   15.579931511966731        5.3368569239892025       -4.6559402740119316        56.955883011118921     
   17.307603402684734        5.3373215995864784       -4.7240497221151134        61.679932733234033     
   19.138935606845820        5.3377866027820513       -4.7877184415598171        66.467651174793843     
   21.080147743256571        5.3382522515806805       -4.8470720576886066        71.314723232482450     
   23.137832607851966        5.3387189331144933       -4.9022735532730621        76.216996785755512     
   25.318978564323086        5.3391870901853498       -4.9535194476898052        81.170516233445312     
   27.630993278182473        5.3396572049459570       -5.0010365210814429        86.171552754526758     
   30.081728874873424        5.3401297794813907       -5.0450799422726789        91.216632696799437     
   32.679508607365833        5.3406053127001458       -5.0859339204521694        96.302566617251600     
   35.433155123807786        5.3410842723642897       -5.1239163073172822        101.42648292456889     
   38.352020431236255        5.3415670602093428       -5.1593889247076117        106.58587184927650     
   41.446017657110431        5.3420539668466338       -5.1927757685821723        111.77864761785867     
   44.725654716537058        5.3425451114243057       -5.2245916140570872        117.00323923191576     
   48.202069999529286        5.3430403587802786       -5.2554838684886231        122.25872310040438     
   51.887070199501046        5.3435392040150846       -5.2862907177678586        127.54501381817224     
   55.793170411471110        5.3440406110649441       -5.3181185893049703        132.86313240747720     
   59.933636636159378        5.3445427880738858       -5.3524416002096427        138.21557400768683     
   63.444751994695032        5.3449480139160883       -5.3828643436620602        143.59843835134888     
   67.166534274742830        5.3453544644523063       -5.4176403989043358        149.01607875025320     
   70.888316554790620        5.3457374842115453       -5.4559831909442105        154.47206194119741     
   74.833405771641281        5.3461162680679077       -5.5018632006993045        159.97392514189670     
   79.015200341502975        5.3464855846251504       -5.5578306922245915        165.53175583412130     
   83.447902585556378        5.3468383363268259       -5.6270977343164859        171.15885356843779     
   88.146566964252983        5.3471649998404942       -5.7136600745949488        176.87251364303273     
   93.127151205671382        5.3474529373505701       -5.8224217403592844        182.69493538339202     
   98.406570501574890        5.3476855659844507       -5.9593143259841330        188.65424970937616     
   104.00275495523260        5.3478413784934755       -6.1314004214366635        194.78565013081283     
   109.93471047610979        5.3478928172851408       -6.3469484264464695        201.13259855725929     
   116.22258332823959        5.3478050160589641       -6.6154645140919897        207.74806307135128     
   122.88772855149719        5.3475344380794372       -6.9476675363297842        214.69573060768107     
   129.55287377475480        5.3470689208877635       -7.3292839300308676        222.02501453771194     
   136.61792771140784        5.3463363751406527       -7.7905809521218661        229.81559548983381     
   144.10688488426010        5.3452687530646985       -8.3437737183114393        238.15936920814525     
   152.04517948748347        5.3437855556698146       -9.0015822066733673        247.16095141481861     
   160.45977176690025        5.3417928201586129       -9.7769200929572655        256.93787150777587     
   169.37923958308204        5.3391823481994205       -10.682529858943539        267.62040136671942     
   178.83387546823474        5.3358312436854280       -11.730583925846222        279.35098529256567     
   188.85578950649659        5.3316018181699798       -12.932270877812808        292.28325617037848     
   198.87770354475845        5.3266815037868627       -14.215789138708814        306.49904530908731     
   209.50093242531602        5.3206820589171437       -15.657267220267615        322.15631252935492     
   220.12416130587360        5.3138987751692213       -17.168680402242877        339.32499293159782     
   230.74739018643118        5.3063384689932045       -18.739260071768371        358.06425300336616     
   242.00801279982221        5.2974668517879415       -20.458274305407446        378.52252730877359     
   253.94427277001671        5.2871251149868579       -22.327585122459038        400.85011243123262     
   266.59670833842284        5.2751476152476338       -24.346926535032239        425.19703896626487     
   280.00829004093339        5.2613639634532205       -26.513653870122873        451.71069283638775     
   294.22456664559456        5.2456015047887501       -28.822573104912795        480.53326594130056     
   308.44084325025574        5.2287617234741077       -31.128633043412126        511.66189898471271     
   323.51009645119655        5.2097924601504788       -33.554710288118407        545.21660927283108     
   339.48350484419382        5.1885368985476354       -36.090988030459876        581.30759730329100     
   356.41531774077094        5.1648435905497312       -38.725861048040024        620.03345835133098     
   374.36303941114267        5.1385683423010367       -41.446338384451892        661.47979673578288     
   393.38762438173671        5.1095753097233434       -44.238709664596918        705.71850640037985     
   412.41220935233076        5.0795901265945549       -46.934023771446817        752.65253017182670     
   431.43679432292481        5.0487471682450451       -49.530048454852832        802.18257862667951     
   450.46137929351886        5.0171657601794157       -52.027209375668001        854.20978800234752     
   470.62743936234858        4.9829841154622825       -54.565616572343401        908.77540457469092     
   492.00346303530807        4.9460881218423385       -57.138200766235393        965.91360534092632     
   513.37948670826756        4.9086422671163019       -59.596586227580666        1025.5101915685070     
   534.75551038122705        4.8707473144929425       -61.944623154672023        1087.4548147231790     
   557.41409547456408        4.8301810581140270       -64.313707179835006        1151.7685219030141     
   581.43219567350138        4.7868485343978371       -66.694564459063884        1218.4630863620780     
   606.89138188437494        4.7406655363744203       -69.076350265562141        1287.5394366276400     
   633.87811926790084        4.6915627350297484       -71.446232509301836        1358.9856691369419     
   662.48406089443836        4.6394874666009374       -73.790560772920941        1432.7762299098629     
   691.09000252097587        4.5875073657755685       -75.975334615577850        1508.7515645254407     
   719.69594414751339        4.5357270403062433       -78.008773779481928        1586.7603383049227     
   750.01824227164309        4.4811732951536509       -80.002564733816229        1666.7629030387388     
   782.15987828322056        4.4238354412246270       -81.943011930398271        1748.7059149691372     
   816.23001245549278        4.3637256039853192       -83.815522645642559        1832.5214376147799     
   852.34435467810124        4.3008766186342733       -85.606610710127313        1918.1280483249072     
   888.45869690070970        4.2389771579139959       -87.222115958673598        2005.3501642835809     
   919.08365910548173        4.1872041524172374       -88.476769409070769        2093.8269336926514     
   951.54611904254011        4.1331597269137657       -89.688595724498015        2183.5155294171495     
   984.00857897959850        4.0799673884364989       -90.793143539475153        2274.3086729566248     
   1018.4187865128804        4.0245463472844181       -91.856676226285813        2366.1653491829106     
   1054.8936064981592        3.9668745115488622       -92.877706765933070        2459.0430559488436     
   1093.5569156825547        3.9069309019878382       -93.854584818980641        2552.8976407678242     
   1134.5400234180140        3.8446969085210858       -94.785448704539718        2647.6830894723639     
   1177.9821176176008        3.7801535573606477       -95.669530901309457        2743.3526203736733     
   1221.4242118171876        3.7169748969878196       -96.468044098801229        2839.8206644724746     
   1267.4728316687497        3.6514940310301367       -97.222891453846600        2937.0435559263210     
   1313.5214515203118        3.5874893662836707       -97.884249916328855        3034.9278058426498     
   1362.3329885629676        3.5212909565868635       -98.485018421111675        3133.4128242637616     
   1414.0732178281826        3.4529154397521271       -99.027999590719361        3232.4408238544811     
   1465.8134470933976        3.3862876459701683       -99.484647591811722        3331.9254714462927     
   1517.5536763586126        3.3213770693068589       -99.857750487783321        3431.7832219340762     
   1572.3983193797405        3.2544816403857233       -100.16089021347477        3531.9441121475511     
   1627.2429624008685        3.1894590231871724       -100.38145755878691        3632.3255697063378     
   1682.0876054219964        3.1261866187579583       -100.55091076524030        3732.8764804715779     
   1728.5958627039129        3.0737368065831414       -100.65930071064891        3833.5357811822269     
   1777.8946154227444        3.0194598738927989       -100.73141086223488        3934.2671920444618     
   1827.1933681415760        2.9664668955600693       -100.76393612871934        4035.0311281731811     
   1879.4500460235374        2.9116797315555241       -100.76199329828145        4135.7931214714627     
   1934.8421245784166        2.8550794289725747       -100.72924268860376        4236.5223641600660     
   1993.5577278465885        2.7966356547230280       -100.66967853941648        4337.1920426994820     
   2055.7962673108505        2.7363748099599055       -100.56915399035563        4437.7611966898376     
   2118.0348067751124        2.6777282255678783       -100.43912225370011        4538.2003189435372     
   2184.0076586072305        2.6173244759632630       -100.26383252592859        4638.4641514694658     
   2253.9388815492753        2.5551692141692239       -100.04970736042735        4738.5138588298933     
   2328.0659778678428        2.4911584222861700       -99.823966094388155        4838.3378249242814     
   2406.6406999655246        2.4253948448611475       -99.545452633605350        4937.8832775578867     
   2485.2154220632065        2.3617439388834769       -99.213299600399537        5037.0965771582860     
   2568.5046274867491        2.2965785800556202       -98.816690300043859        5135.9132674583298     
   2651.7938329102917        2.2334634085452638       -98.421198032555282        5234.3344654908851     
   2735.0830383338343        2.1719455423097429       -98.090001207143175        5332.4244666980285     
   2823.3695960827895        2.1085544294567087       -97.725882417280289        5430.1503491153089     
   2911.6561538317446        2.0472527832480072       -97.281559176199266        5527.4319082915081     
   2999.9427115806998        1.9880690977684539       -96.782660294737525        5624.2145685862452     
   3088.2292693296549        1.9308292360512243       -96.271872825653716        5720.4864414118992     
   3176.5158270786101        1.8752495626876915       -95.786923390360940        5816.2733648022604     
   3270.0995782925024        1.8182210317915291       -95.249969432197148        5911.5233342344573     
   3369.2983545792285        1.7596411509576140       -94.699464655327418        6006.2227988897848     
   3468.4971308659547        1.7026350818407114       -94.191642864540682        6100.4144417543257     
   3567.6959071526808        1.6475033074454197       -93.623242340172197        6194.0376840944982     
   3666.8946834394069        1.5943054211286869       -93.011741679674373        6287.0494257741730     
   3772.0453863033363        1.5396057364814797       -92.415933447177721        6379.4653592213508     
   3877.1960891672661        1.4858500512175401       -91.957808090030298        6471.4231673113809     
   3988.6558342030316        1.4308865227565268       -91.340066828020355        6562.7632341394010     
   4100.1155792387972        1.3780151523198270       -90.666667983291262        6653.4299021226925     
   4218.2629089767088        1.3240659884475297       -89.953691293705845        6743.3835934163981     
   4336.4102387146204        1.2717318825302859       -89.300021807960817        6832.6836152243586     
   4454.5575684525320        1.2209240324596644       -88.666179837349034        6921.3497950617075     
   4572.7048981904436        1.1715773376442489       -88.043760361143143        7009.3935554228510     
   4697.9410677126298        1.1209051342189225       -87.384941367647670        7096.7784967904990     
   4823.1772372348159        1.0714889729353629       -86.784667758438047        7183.5631645489375     
   4948.4134067570021        1.0237137988595244       -86.131835694249432        7269.6950002431868     
   5081.1637464505193       0.97420556464433061       -85.535810612160901        7355.2308108553480     
   5213.9140861440364       0.92614809417109079       -84.914812934804957        7440.1456237901530     
   5346.6644258375536       0.87986861104111158       -84.234022819205691        7524.3796466093590     
   5479.4147655310708       0.83525522191743784       -83.542661524007030        7607.9223081333657     
   5612.1651052245879       0.79209737765856425       -82.870319638524151        7690.7926277718898     
   5744.9154449181051       0.75043420698506758       -82.182421612911995        7772.9750493848014     
   5877.6657846116223       0.70971736753954473       -81.575612804578910        7854.5506621893801     
   6010.4161243051394       0.67048674364863392       -80.904263035889528        7935.4549252252700     
   6143.1664639986566       0.63190315813451603       -80.348141127212344        8015.8030663524823     
   6275.9168036921737       0.59373719520757484       -79.864685609582963        8095.6677519620653     
   6408.6671433856909       0.55662290247477775       -79.315469614335456        8174.9832215764009     
   6541.4174830792081       0.52165008887022146       -78.577598549631432        8253.5608201260329     
   6674.1678227727252       0.48713898416944534       -78.030944361500758        8331.5917644875335     
   6814.8831828478533       0.45035028118945281       -77.618113100373108        8409.2098775879058     
   6964.0414645274896       0.41261228456117377       -77.061215856114472        8486.2710934440202     
   7113.1997462071258       0.37683388024800274       -76.348509073170760        8562.6196025171903     
   7262.3580278867621       0.34240943087254117       -75.674037141660861        8638.2936396588520     
   7411.5163095663984       0.30939815505616225       -74.992244559242764        8713.2858842180940     
   7560.6745912460347       0.27647592443727526       -74.473368136332354        8787.7592523544263     
   7718.7823698264483       0.24169569179140013       -73.988255766640364        8861.7475081210669     
   7886.3766151216869       0.20492805173109629       -73.564061489451717        8935.3115696105178     
   8053.9708604169255       0.17041734403408743       -72.894827488975480        9008.2063970994932     
   8221.5651057121650       0.13715937470907741       -72.236756261381956        9080.4431533608749     
   8389.1593510074035       0.10368601094245444       -71.769150672330753        9152.2123040332062     
   8566.8092510203569        6.8881135255425469E-002  -71.288895498081814        9223.5011995312889     
   8744.4591510333103        3.5761913974441756E-002  -70.661166595365884        9294.1623661266549     
   8922.1090510462636        5.4268507298507740E-003  -69.798587707966249        9363.9609538346213     
   9099.7589510592170       -2.4650010014393042E-002  -69.199557292284297        9433.1605111269055     
   9277.4088510721704       -5.4801971062445110E-002  -68.699985276968420        9501.8604964038732     
   9465.7177450859017       -8.7840646476606721E-002  -68.398998948849552        9570.2594953527223     
   9665.3251727404568      -0.11971187145610224       -67.992309972528915        9638.2518053252516     
   9864.9326003950118      -0.15189359406822928       -67.713902161761922        9705.9657074870138     
   10064.540028049567      -0.18270193771811927       -67.326148581437323        9773.2918560684502     
   10264.147455704122      -0.21245744163307190       -67.355854880428126        9840.6477109488787     
   10463.754883358677      -0.24294230033807651       -67.522377864403524        9908.1700888132818     
   10663.754883358677      -0.27023860445062337       -67.503694297619475        9975.6737831109021     
   10863.754883358677      -0.29660997411473183       -67.473003021312806        10043.146786132214     
   11063.754883358677      -0.32300712228712880       -67.845063056309073        10110.991849188524     
   11263.754883358677      -0.34754829261259162       -69.479116316238091        10180.470965504761     
   11463.754883358677      -0.37435688274123036       -71.137494028102552        10251.608459532863     
   11663.754883358677      -0.40090431132728055       -71.913160204365099        10323.521619737228     
   11863.754883358677      -0.42736444907837601       -72.962222905604406        10396.483842642832     
   12063.754883358677      -0.45110121413319448       -74.606347048876373        10471.090189691709     
