 #              _____________________  _______________________             #
 #              ___  __ \__  __ \_  / / /_  /___  ____/_  ___/             #
 #              __  / / /_  /_/ /  / / /_  __/_  __/  _____ \              #
 #              _  /_/ /_  _, _// /_/ / / /_ _  /___  ____/ /              #
 #              /_____/ /_/ |_| \____/  \__/ /_____/  /____/               #
 #                                                                         #
  
 #        time                      T            heat flux [W.L-2]   in    x              directions   cumulative flux
 #-----------------------------------------------------------------------------------------------

   0.0000000000000000        5.1906999999999996       -4.1881772849247927        4.1881772849247927     
   1.0000000000000000        4.8188283560711538       -101.31943263016365        105.50760991508844     
   1.9540000000000002        4.4950648697423317       -183.34202117452904        288.84963108961745     
   2.8641160000000001        4.2115608231179200       -252.95963279542966        541.80926388504713     
   3.8288389600000006        3.9356132071564618       -318.40668717340463        860.21595105845176     
   4.8514452976000007        3.6678225764447445       -379.48526473088071        1239.7012157893325     
   5.9354080154560007        3.4086919190185019       -436.04290971285894        1675.7441255021915     
   7.0844084963833609        3.1586177140220268       -487.97575493669740        2163.7198804388890     
   8.3023490061663630        2.9178834027520590       -535.23054692112760        2698.9504273600169     
   9.5933659465363448        2.6866556387636940       -577.80543608252242        3276.7558634425395     
   10.961843903328527        2.4649835885701288       -615.74943959634095        3892.5053030388804     
   12.412430537528239        2.2528014346660230       -649.16053750148001        4541.6658405403605     
   13.950052369779934        2.0499340919671671       -678.18242345629562        5219.8482639966560     
   15.579931511966731        1.8561059946117759       -702.99999698257511        5922.8482609792309     
   17.307603402684734        1.6709526519872202       -723.83374988788239        6646.6820108671136     
   19.138935606845820        1.4940345220965912       -740.93326100838522        7387.6152718754984     
   21.080147743256571        1.3248526190464267       -754.57006536391077        8142.1853372394089     
   23.137832607851966        1.1628651712879436       -765.03020139347393        8907.2155386328832     
   25.318978564323086        1.0075045884308913       -772.60675906303538        9679.8222976959187     
   27.630993278182473       0.85819398419122817       -777.59274957802950        10457.415047273947     
   30.081728874873424       0.71436254447042635       -780.27459328433986        11237.689640558287     
   32.679508607365833       0.57545912097068042       -780.92647731949273        12018.616117877780     
   35.433155123807786       0.44096356529528069       -779.80577207635679        12798.421889954137     
   38.352020431236255       0.31039548464445998       -777.14962090397796        13575.571510858115     
   41.446017657110431       0.18332028287856306       -773.17273745091063        14348.744248309025     
   44.725654716537058        5.9352532862313290E-002  -768.06636706047607        15116.810615369501     
   48.202069999529286       -6.1843109229430704E-002  -761.99829979741367        15878.808915166914     
   51.887070199501046      -0.18055310412009157       -755.11376898703884        16633.922684153953     
   55.793170411471110      -0.29701791007837097       -789.62508756110390        17423.547771715057     
   59.933636636159378      -0.41143606659693643       -801.28067216307306        18224.828443878130     
   63.444751994695032      -0.50048858889583780       -789.89796820810375        19014.726412086235     
   67.166534274742830      -0.53630982158216201       -761.47716177036125        19776.203573856597     
   70.888316554790620      -0.56533942866318954       -728.23808202982275        20504.441655886421     
   74.833405771641281      -0.59266397606701493       -687.54558718385624        21191.987243070278     
   79.015200341502975      -0.61831568560822148       -667.73409363712426        21859.721336707404     
   83.447902585556378      -0.64250284959176918       -652.51932940449035        22512.240666111895     
   88.146566964252983      -0.66552758031376524       -639.08090273817470        23151.321568850071     
   93.127151205671382      -0.68773679316513869       -626.71426752477578        23778.035836374846     
   98.406570501574890      -0.70949435566531738       -615.55915236180113        24393.594988736648     
   104.00275495523260      -0.73116293344566263       -602.08876010808115        24995.683748844727     
   109.93471047610979      -0.75309159506654877       -589.73414679274151        25585.417895637467     
   116.22258332823959      -0.77561018783066138       -578.21662538931264        26163.634521026779     
   122.88772855149719      -0.80703061015414379       -567.33498382917492        26730.969504855955     
   129.55287377475480      -0.84566739932308577       -558.08489822830677        27289.054403084261     
   136.61792771140784      -0.89643766549238779       -550.62602985465264        27839.680432938912     
   144.10688488426010      -0.92276715249748997       -541.29035325559994        28380.970786194513     
   152.04517948748347      -0.95128702497385931       -531.97369422556892        28912.944480420083     
   160.45977176690025      -0.98375678387474219       -522.84188952749287        29435.786369947575     
   169.37923958308204       -1.0216423324028181       -514.09605250236939        29949.882422449944     
   178.83387546823474       -1.0672113499384601       -506.06563417160015        30455.948056621542     
   188.85578950649659       -1.1090403570617666       -501.98151720330281        30957.929573824844     
   198.87770354475845       -1.1497787737706067       -499.35253465970675        31457.282108484549     
   209.50093242531602       -1.1893988690335058       -497.72042996926109        31955.002538453809     
   220.12416130587360       -1.2240815976229562       -497.07730933819164        32452.079847792000     
   230.74739018643118       -1.2534919782186469       -497.44591219519504        32949.525759987198     
   242.00801279982221       -1.2813693810191289       -498.68593391174085        33448.211693898942     
   253.94427277001671       -1.3091462643434897       -500.79882263553657        33949.010516534479     
   266.59670833842284       -1.3382467322090852       -503.64454473672583        34452.655061271202     
   280.00829004093339       -1.3698882985244414       -506.91507287750085        34959.570134148700     
   294.22456664559456       -1.4300674978476440       -511.42362585400980        35470.993760002711     
   308.44084325025574       -1.5039488328482919       -515.77482379457524        35986.768583797289     
   323.51009645119655       -1.5478778499158803       -517.36607636679980        36504.134660164091     
   339.48350484419382       -1.5933479822520573       -517.92031203652004        37022.054972200611     
   356.41531774077094       -1.6453097862054229       -517.92348142880360        37539.978453629417     
   374.36303941114267       -1.7066984674408117       -517.37244759180851        38057.350901221223     
   393.38762438173671       -1.7588988985802372       -514.96020991137220        38572.311111132592     
   412.41220935233076       -1.8050015675903783       -511.03226521894106        39083.343376351535     
   431.43679432292481       -1.8428562314603030       -506.41564327457365        39589.759019626108     
   450.46137929351886       -1.8765015107562315       -503.05450343815153        40092.813523064258     
   470.62743936234858       -1.9165887027817539       -504.91491746992352        40597.728440534185     
   492.00346303530807       -1.9660578384618350       -510.19745120397397        41107.925891738159     
   513.37948670826756       -2.0673749235895302       -526.87581007931249        41634.801701817472     
   534.75551038122705       -2.1658035203407655       -540.07092519975936        42174.872627017234     
   557.41409547456408       -2.2312074262789037       -549.12355184791409        42723.996178865149     
   581.43219567350138       -2.2904272246331612       -554.55573769590694        43278.551916561053     
   606.89138188437494       -2.3482895853057379       -557.91703900068762        43836.468955561744     
   633.87811926790084       -2.4038602038255408       -559.03797867444689        44395.506934236189     
   662.48406089443836       -2.4602745007298892       -556.10717957081374        44951.614113807002     
   691.09000252097587       -2.5120193944516660       -551.19140971011234        45502.805523517112     
   719.69594414751339       -2.5523108601391780       -550.57593847484520        46053.381461991958     
   750.01824227164309       -2.5862818712175399       -547.33956094120924        46600.721022933169     
   782.15987828322056       -2.6173562757766282       -542.36456703017518        47143.085589963346     
   816.23001245549278       -2.6488013731432161       -536.13336352577244        47679.218953489122     
   852.34435467810124       -2.6900739592531546       -528.01017691168431        48207.229130400803     
   888.45869690070970       -2.7417099501973614       -518.29581384283927        48725.524944243640     
   919.08365910548173       -2.7748685629284844       -514.10085878524501        49239.625803028888     
   951.54611904254011       -2.8059679360994529       -508.67419137032743        49748.299994399218     
   984.00857897959850       -2.8358557654769410       -503.34767661230876        50251.647671011524     
   1018.4187865128804       -2.8660804636922248       -497.84835677155837        50749.496027783083     
   1054.8936064981592       -2.8962061468671840       -492.01036648309974        51241.506394266180     
   1093.5569156825547       -2.9274893508726483       -485.58269985700741        51727.089094123185     
   1134.5400234180140       -2.9633497176542489       -478.28800079708924        52205.377094920274     
   1177.9821176176008       -3.0260226800369017       -467.90342852320850        52673.280523443485     
   1221.4242118171876       -3.0940467600607668       -457.00601536414871        53130.286538807632     
   1267.4728316687497       -3.1491526353229515       -449.16458062655943        53579.451119434190     
   1313.5214515203118       -3.1996229681734611       -440.79915465660122        54020.250274090795     
   1362.3329885629676       -3.2517736393832593       -433.10152597805450        54453.351800068849     
   1414.0732178281826       -3.3040510980727746       -425.39909173109629        54878.750891799944     
   1465.8134470933976       -3.3455071774870220       -418.56139218843208        55297.312283988373     
   1517.5536763586126       -3.3806203044890211       -412.81532267582884        55710.127606664202     
   1572.3983193797405       -3.4126696262917333       -407.89424100654986        56118.021847670752     
   1627.2429624008685       -3.4442310705778105       -402.90237062403503        56520.924218294786     
   1682.0876054219964       -3.4784165536012499       -397.63714286291184        56918.561361157699     
   1728.5958627039129       -3.5014159836695469       -393.03968787616509        57311.601049033867     
   1777.8946154227444       -3.5253534626011600       -389.48096311351787        57701.082012147388     
   1827.1933681415760       -3.5472443874442465       -385.96191869204904        58087.043930839434     
   1879.4500460235374       -3.5701877334978400       -382.54611090090788        58469.590041740339     
   1934.8421245784166       -3.5944094728510012       -378.94705739820233        58848.537099138543     
   1993.5577278465885       -3.6223187964520562       -374.91624023380751        59223.453339372347     
   2055.7962673108505       -3.6609000774649294       -369.69232617939883        59593.145665551747     
   2118.0348067751124       -3.7005367468934138       -363.54496489024160        59956.690630441990     
   2184.0076586072305       -3.7386016987495578       -357.66432628230689        60314.354956724295     
   2253.9388815492753       -3.7757477571014100       -351.95665488324317        60666.311611607540     
   2328.0659778678428       -3.8146260953906812       -346.16663262077685        61012.478244228318     
   2406.6406999655246       -3.8502671364636192       -340.45549656448867        61352.933740792803     
   2485.2154220632065       -3.8798288187802736       -335.28415643159792        61688.217897224400     
   2568.5046274867491       -3.9096135218567083       -330.74439453943347        62018.962291763833     
   2651.7938329102917       -3.9383335654845446       -326.13725859879878        62345.099550362633     
   2735.0830383338343       -3.9674994260586143       -321.60037092424881        62666.699921286883     
   2823.3695960827895       -3.9941506510472067       -317.27798552407381        62983.977906810956     
   2911.6561538317446       -4.0174272572023844       -313.29624798827570        63297.274154799234     
   2999.9427115806998       -4.0408750313591373       -309.63135339559813        63606.905508194832     
   3088.2292693296549       -4.0678289408302692       -305.74292236175825        63912.648430556590     
   3176.5158270786101       -4.0962025673064497       -301.42994902294959        64214.078379579543     
   3270.0995782925024       -4.1253023378843849       -297.03015695340673        64511.108536532949     
   3369.2983545792285       -4.1545392275701696       -292.54896759861572        64803.657504131566     
   3468.4971308659547       -4.1816627498962760       -288.07066446030433        65091.728168591872     
   3567.6959071526808       -4.2063829810231201       -283.93815595562427        65375.666324547499     
   3666.8946834394069       -4.2285253828970628       -280.19143973039041        65655.857764277884     
   3772.0453863033363       -4.2523521979042886       -276.69983289128146        65932.557597169172     
   3877.1960891672661       -4.2742845691849478       -273.05219656966131        66205.609793738840     
   3988.6558342030316       -4.2961646952651940       -269.67175480272311        66475.281548541563     
   4100.1155792387972       -4.3147225102614790       -266.38791062718730        66741.669459168756     
   4218.2629089767088       -4.3362108994139268       -263.39908619957504        67005.068545368325     
   4336.4102387146204       -4.3573995528756377       -260.04010147515771        67265.108646843481     
   4454.5575684525320       -4.3800295150177204       -256.65503699494735        67521.763683838435     
   4572.7048981904436       -4.4009220414552601       -253.17722996509369        67774.940913803526     
   4697.9410677126298       -4.4237114173161967       -249.87456263197342        68024.815476435499     
   4823.1772372348159       -4.4440354343208828       -246.39614874327651        68271.211625178781     
   4948.4134067570021       -4.4637604334217000       -243.23120762558270        68514.442832804358     
   5081.1637464505193       -4.4843213382577281       -240.14978258445399        68754.592615388814     
   5213.9140861440364       -4.5027386710057309       -237.00294212029331        68991.595557509107     
   5346.6644258375536       -4.5198476211456118       -234.16157250230060        69225.757130011407     
   5479.4147655310708       -4.5353507507942652       -231.53637936003017        69457.293509371433     
   5612.1651052245879       -4.5507617386549564       -229.10772871130607        69686.401238082733     
   5744.9154449181051       -4.5663989993445728       -226.68192465224760        69913.083162734983     
   5877.6657846116223       -4.5823923830076732       -224.21601339045779        70137.299176125438     
   6010.4161243051394       -4.5975916220211612       -221.73602088624588        70359.035197011690     
   6143.1664639986566       -4.6125970222614905       -219.35896507983227        70578.394162091528     
   6275.9168036921737       -4.6272346168031611       -217.01856580806844        70795.412727899602     
   6408.6671433856909       -4.6412834801255007       -214.74382382722916        71010.156551726832     
   6541.4174830792081       -4.6548208592153397       -212.55868907793760        71222.715240804770     
   6674.1678227727252       -4.6678920440609231       -210.45219984965257        71433.167440654419     
   6814.8831828478533       -4.6821403391535625       -208.38872264540353        71641.556163299829     
   6964.0414645274896       -4.6957758725795911       -206.20065784470330        71847.756821144532     
   7113.1997462071258       -4.7081116485768009       -204.10340300116539        72051.860224145697     
   7262.3580278867621       -4.7205150989930988       -202.16645929898610        72254.026683444681     
   7411.5163095663984       -4.7327183514753717       -200.22738856588421        72454.254072010561     
   7560.6745912460347       -4.7451017823613171       -198.30780349741676        72652.561875507978     
   7718.7823698264483       -4.7585420425357450       -196.35611556462609        72848.917991072609     
   7886.3766151216869       -4.7720493190041919       -194.26908029426630        73043.187071366876     
   8053.9708604169255       -4.7846239177143968       -192.17693725186896        73235.364008618752     
   8221.5651057121650       -4.7971887277107044       -190.20506553338680        73425.569074152139     
   8389.1593510074035       -4.8091018816039810       -188.25285913119248        73613.821933283325     
   8566.8092510203569       -4.8223640184300978       -186.36769063905450        73800.189623922386     
   8744.4591510333103       -4.8333282003408478       -184.34844724027249        73984.538071162664     
   8922.1090510462636       -4.8448956448562397       -182.61306967534560        74167.151140838003     
   9099.7589510592170       -4.8553616666130122       -180.82798653111763        74347.979127369123     
   9277.4088510721704       -4.8662808062798364       -179.17478175053901        74527.153909119661     
   9465.7177450859017       -4.8781387414415507       -177.45540632273838        74704.609315442402     
   9665.3251727404568       -4.8901166449608162       -175.60955108425765        74880.218866526659     
   9864.9326003950118       -4.9011570893889029       -173.75306444565103        75053.971930972315     
   10064.540028049567       -4.9122863513264408       -172.01963142206500        75225.991562394382     
   10264.147455704122       -4.9227329819817607       -170.29025462749163        75396.281817021867     
   10463.754883358677       -4.9331551984464257       -168.65266109158821        75564.934478113457     
   10663.754883358677       -4.9428438500510126       -167.03571052896513        75731.970188642415     
   10863.754883358677       -4.9523261694652536       -165.52117922964578        75897.491367872062     
   11063.754883358677       -4.9613993170325399       -164.04368117300757        76061.535049045066     
   11263.754883358677       -4.9704604486080362       -162.62116054428245        76224.156209589346     
   11463.754883358677       -4.9793355360318561       -161.20460420943559        76385.360813798776     
   11663.754883358677       -4.9880735907323830       -159.81600859754352        76545.176822396315     
   11863.754883358677       -4.9965212647120714       -158.45252334832929        76703.629345744645     
   12063.754883358677       -5.0047996898155143       -157.13171597187412        76860.761061716519     
