 #              _____________________  _______________________             #
 #              ___  __ \__  __ \_  / / /_  /___  ____/_  ___/             #
 #              __  / / /_  /_/ /  / / /_  __/_  __/  _____ \              #
 #              _  /_/ /_  _, _// /_/ / / /_ _  /___  ____/ /              #
 #              /_____/ /_/ |_| \____/  \__/ /_____/  /____/               #
 #                                                                         #
  
 #        time                      T            heat flux [W.L-2]   in    x              directions   cumulative flux
 #-----------------------------------------------------------------------------------------------

   0.0000000000000000        5.4707999999999997       0.83978116654787593       0.83978116654787593     
   1.0000000000000000        5.4701489910704417        1.0097745510957088        1.8495557176435846     
   1.9540000000000002        5.4695614244353603        1.1586921104527281        3.0082478280963127     
   2.8641160000000001        5.4690290064478271        1.2897402749972027        4.2979881030935152     
   3.8288389600000006        5.4684936795450616        1.4173962235548467        5.7153843266483619     
   4.8514452976000007        5.4679560997445602        1.5412717197777126        7.2566560464260750     
   5.9354080154560007        5.4674168666165164        1.6610113160775895        8.9176673625036642     
   7.0844084963833609        5.4668765104317227        1.7762984618364790        10.693965824340143     
   8.3023490061663630        5.4663354802520212        1.8868610664610490        12.580826890801193     
   9.5933659465363448        5.4657941334030520        1.9924763139915289        14.573303204792722     
   10.961843903328527        5.4652527267585427        2.0929745364998853        16.666277741292607     
   12.412430537528239        5.4647114102325718        2.1882419747638600        18.854519716056465     
   13.950052369779934        5.4641702228202957        2.2782222867767157        21.132742002833183     
   15.579931511966731        5.4636290914487837        2.3629167069123453        23.495658709745527     
   17.307603402684734        5.4630878328001522        2.4423828094417326        25.938041519187259     
   19.138935606845820        5.4625461581529127        2.5167318872691866        28.454773406456447     
   21.080147743256571        5.4620036811603621        2.5861250169207990        31.040898423377246     
   23.137832607851966        5.4614599283537606        2.6507679403037807        33.691666363681030     
   25.318978564323086        5.4609143520316286        2.7109049483416698        36.402571312022701     
   27.630993278182473        5.4603663450829298        2.7668119972878005        39.169383309310504     
   30.081728874873424        5.4598152571996534        2.8187893216831563        41.988172630993660     
   32.679508607365833        5.4592604118701438        2.8671538257991620        44.855326456792824     
   35.433155123807786        5.4587011235134320        2.9122315364955043        47.767557993288328     
   38.352020431236255        5.4581367141192043        2.9543503845502994        50.721908377838631     
   41.446017657110431        5.4575665287972095        2.9938335502127287        53.715741928051358     
   44.725654716537058        5.4569899497105627        3.0309935646710775        56.746735492722436     
   48.202069999529286        5.4564064079632475        3.0661273063733443        59.812862799095782     
   51.887070199501046        5.4558153931253637        3.0995119741875050        62.912374773283290     
   55.793170411471110        5.4552164602011866        3.1314020630167052        66.043776836299998     
   59.933636636159378        5.4546092339657930        3.1620273160151893        69.205804152315181     
   63.444751994695032        5.4541124754293220        3.1860739439123575        72.391878096227543     
   67.166534274742830        5.4536045978604868        3.2097407048856006        75.601618801113148     
   70.888316554790620        5.4531139232855201        3.2318530581579203        78.833471859271071     
   74.833405771641281        5.4526116177196950        3.2537978385456885        82.087269697816765     
   79.015200341502975        5.4520976233959768        3.2756168640709422        85.362886561887706     
   83.447902585556378        5.4515719110100509        3.2973459080883654        88.660232469976066     
   88.146566964252983        5.4510344788971032        3.3190142156271256        91.979246685603187     
   93.127151205671382        5.4504853513504665        3.3406441843990979        95.319890870002283     
   98.406570501574890        5.4499245761008916        3.3622511985658106        98.682142068568098     
   104.00275495523260        5.4493522209944212        3.3838436006227868        102.06598566919088     
   109.93471047610979        5.4487683699232381        3.4054227853377625        105.47140845452864     
   116.22258332823959        5.4481731180769728        3.4269833994589152        108.89839185398756     
   122.88772855149719        5.4475665665920587        3.4485136315403668        112.34690548552793     
   129.55287377475480        5.4469825388159361        3.4688449367372924        115.81575042226522     
   136.61792771140784        5.4463867811408520        3.4891729220088545        119.30492334427407     
   144.10688488426010        5.4457793663087228        3.5094699666184486        122.81439331089253     
   152.04517948748347        5.4451603543201879        3.5297042469857454        126.34409755787827     
   160.45977176690025        5.4445297861518061        3.5498401165630824        129.89393767444136     
   169.37923958308204        5.4438876772464342        3.5698385267470742        133.46377620118844     
   178.83387546823474        5.4432340108402020        3.5896574819764178        137.05343368316485     
   188.85578950649659        5.4425687311822362        3.6092525214838971        140.66268620464876     
   198.87770354475845        5.4419286770660040        3.6275542817148718        144.29024048636364     
   209.50093242531602        5.4412760638013919        3.6456261755778638        147.93586666194150     
   220.12416130587360        5.4406470827281819        3.6624807540759443        151.59834741601745     
   230.74739018643118        5.4400397686709034        3.6782164753611690        155.27656389137863     
   242.00801279982221        5.4394182869195529        3.6937434432213063        158.97030733459994     
   253.94427277001671        5.4387823573652785        3.7090168671426480        162.67932420174259     
   266.59670833842284        5.4381316451709445        3.7239913863844150        166.40331558812701     
   280.00829004093339        5.4374657538713578        3.7386213474624754        170.14193693558948     
   294.22456664559456        5.4367842181758386        3.7528610558417856        173.89479799143126     
   308.44084325025574        5.4361247869658635        3.7659465085504453        177.66074449998172     
   323.51009645119655        5.4354483209285815        3.7786396660717343        181.43938416605346     
   339.48350484419382        5.4347541779237813        3.7908964858663632        185.23028065191983     
   356.41531774077094        5.4340416269789706        3.8026730154226644        189.03295366734250     
   374.36303941114267        5.4333098392242984        3.8139253990718061        192.84687906641432     
   393.38762438173671        5.4325578782121386        3.8246098123192325        196.67148887873356     
   412.41220935233076        5.4318273020738603        3.8341727589472319        200.50566163768079     
   431.43679432292481        5.4311160488900603        3.8427204608271897        204.34838209850798     
   450.46137929351886        5.4304223009142971        3.8503459491381675        208.19872804764614     
   470.62743936234858        5.4297046931879116        3.8574894054258415        212.05621745307198     
   492.00346303530807        5.4289620011834456        3.8641057515342818        215.92032320460626     
   513.37948670826756        5.4282355294422064        3.8698535223569110        219.79017672696318     
   534.75551038122705        5.4275237283579454        3.8748089403107442        223.66498566727392     
   557.41409547456408        5.4267840751256706        3.8792505090034384        227.54423617627737     
   581.43219567350138        5.4260150290710172        3.8831289570448271        231.42736513332218     
   606.89138188437494        5.4252148967337508        3.8863922815751821        235.31375741489737     
   633.87811926790084        5.4243818169712785        3.8889853805492334        239.20274279544660     
   662.48406089443836        5.4235137448765443        3.8908495905583189        243.09359238600493     
   691.09000252097587        5.4226589741590621        3.8919056956073455        246.98549808161226     
   719.69594414751339        5.4218160161488775        3.8922196991720632        250.87771778078434     
   750.01824227164309        5.4209341960707924        3.8917861935191977        254.76950397430355     
   782.15987828322056        5.4200110036472200        3.8905339416064102        258.66003791590998     
   816.23001245549278        5.4190436846204912        3.8883841149327498        262.54842203084274     
   852.34435467810124        5.4180292097866118        3.8852480866773083        266.43367011752008     
   888.45869690070970        5.4170240473873790        3.8813089019733518        270.31497901949342     
   919.08365910548173        5.4161774962342299        3.8774178189697541        274.19239683846320     
   951.54611904254011        5.4152857537061898        3.8726995490452372        278.06509638750845     
   984.00857897959850        5.4143987419540203        3.8674060183206818        281.93250240582915     
   1018.4187865128804        5.4134628615639446        3.8611628352142695        285.79366524104341     
   1054.8936064981592        5.4124746415237004        3.8538429737421431        289.64750821478555     
   1093.5569156825547        5.4114301938955816        3.8452941838147376        293.49280239860030     
   1134.5400234180140        5.4103251240480912        3.8353319459986253        297.32813434459894     
   1177.9821176176008        5.4091544143171628        3.8237306113560900        301.15186495595503     
   1221.4242118171876        5.4079827450753886        3.8110460134294697        304.96291096938450     
   1267.4728316687497        5.4067377494035078        3.7963196899448350        308.75923065932932     
   1313.5214515203118        5.4054877459711577        3.7802376735427603        312.53946833287210     
   1362.3329885629676        5.4041546961622018        3.7615662463193180        316.30103457919142     
   1414.0732178281826        5.4027296525907254        3.7398173047941499        320.04085188398557     
   1465.8134470933976        5.4012895345252350        3.7159712556169144        323.75682313960249     
   1517.5536763586126        5.3998311862884645        3.6898835554029517        327.44670669500545     
   1572.3983193797405        5.3982609890355118        3.6595378592126724        331.10624455421811     
   1627.2429624008685        5.3966624883960508        3.6263271921798412        334.73257174639792     
   1682.0876054219964        5.3950316584283904        3.5900842934916217        338.32265603988952     
   1728.5958627039129        5.3936229847474646        3.5570716497388286        341.87972768962834     
   1777.8946154227444        5.3920979052329017        3.5194072238439968        345.39913491347232     
   1827.1933681415760        5.3905379600885261        3.4789684881781695        348.87810340165049     
   1879.4500460235374        5.3888417072694352        3.4328738260937524        352.31097722774422     
   1934.8421245784166        5.3869915207287011        3.3802655528511858        355.69124278059542     
   1993.5577278465885        5.3849668397097474        3.3201674275090962        359.01141020810451     
   2055.7962673108505        5.3827436883305992        3.2514747352518585        362.26288494335637     
   2118.0348067751124        5.3804380741771105        3.1776997462226708        365.44058468957905     
   2184.0076586072305        5.3778952269709048        3.0937089136616214        368.53429360324066     
   2253.9388815492753        5.3750816542731039        2.9981198128069848        371.53241341604763     
   2328.0659778678428        5.3719586836221911        2.8894097097581044        374.42182312580576     
   2406.6406999655246        5.3684818048295355        2.7659156593181344        377.18773878512388     
   2485.2154220632065        5.3648306100908361        2.6342491314449643        379.82198791656884     
   2568.5046274867491        5.3607562242299132        2.4856640181916516        382.30765193476049     
   2651.7938329102917        5.3564704840082005        2.3282755250131397        384.63592745977360     
   2735.0830383338343        5.3519671699841478        2.1623429063890871        386.79827036616268     
   2823.3695960827895        5.3469430373494404        1.9772092831706158        388.77547964933331     
   2911.6561538317446        5.3416633432170233        1.7832237778442821        390.55870342717759     
   2999.9427115806998        5.3361243038108608        1.5808091648534370        392.13951259203105     
   3088.2292693296549        5.3303232325382410        1.3704107837868289        393.50992337581789     
   3176.5158270786101        5.3242584727792046        1.1524898235442127        394.66241319936211     
   3270.0995782925024        5.3175327783907607       0.91360240633123668        395.57601560569333     
   3369.2983545792285        5.3100702572825389       0.65219067334012670        396.22820627903343     
   3468.4971308659547        5.3022761916421004       0.38326156394756739        396.61146784298097     
   3567.6959071526808        5.2941534605854663       0.10748205305952016        396.71894989604050     
   3666.8946834394069        5.2857059627506473      -0.17449364098977946        396.89344353703029     
   3772.0453863033363        5.2763924804301974      -0.47959225880832246        397.37303579583863     
   3877.1960891672661        5.2667266208647092      -0.79016287348941450        398.16319866932804     
   3988.6558342030316        5.2560939908107907       -1.1246811299661286        399.28787979929416     
   4100.1155792387972        5.2450845501607102       -1.4637173798031535        400.75159717909730     
   4218.2629089767088        5.2330040081907843       -1.8272787855786854        402.57887596467600     
   4336.4102387146204        5.2205265273026136       -2.1941841494037697        404.77306011407978     
   4454.5575684525320        5.2076662868491166       -2.5636499858854309        407.33671009996522     
   4572.7048981904436        5.1944379051593295       -2.9349476020910239        410.27165770205625     
   4697.9410677126298        5.1800199722210785       -3.3297813943553831        413.60143909641164     
   4823.1772372348159        5.1652242263176689       -3.7251386683793930        417.32657776479101     
   4948.4134067570021        5.1500688147672937       -4.1203479120032052        421.44692567679419     
   5081.1637464505193        5.1336215643034215       -4.5383801649335798        425.98530584172778     
   5213.9140861440364        5.1168132746865922       -4.9548714471374469        430.94017728886524     
   5346.6644258375536        5.0996651799226722       -5.3692392350433513        436.30941652390857     
   5479.4147655310708        5.0821981822799511       -5.7809655073499782        442.09038203125857     
   5612.1651052245879        5.0644327784225043       -6.1895923175008019        448.27997434875937     
   5744.9154449181051        5.0463890021350926       -6.5947170563466653        454.87469140510603     
   5877.6657846116223        5.0280863822519422       -6.9959875721690201        461.87067897727508     
   6010.4161243051394        5.0095439134608366       -7.3930973885742644        469.26377636584937     
   6143.1664639986566        4.9907800370216320       -7.7857812600266216        477.04955762587599     
   6275.9168036921737        4.9718126279704862       -8.1738112950231034        485.22336892089908     
   6408.6671433856909        4.9526589855464440       -8.5569937770279108        493.78036269792699     
   6541.4174830792081        4.9333358253508175       -8.9351665125000626        502.71552921042706     
   6674.1678227727252        4.9138592746140031       -9.3081963076144056        512.02372551804149     
   6814.8831828478533        4.8930602402524581       -9.6977044721397778        521.72142999018126     
   6964.0414645274896        4.8708613953803841       -10.103839207224068        531.82526919740531     
   7113.1997462071258        4.8485307909012096       -10.503153263702076        542.32842246110738     
   7262.3580278867621        4.8260876085284750       -10.895601124200827        553.22402358530826     
   7411.5163095663984        4.8035501231758646       -11.281163939007149        564.50518752431537     
   7560.6745912460347        4.7809357334028562       -11.659845018287781        576.16503254260317     
   7718.7823698264483        4.7568977274393767       -12.053541992188418        588.21857453479163     
   7886.3766151216869        4.7313645622443312       -12.462260499910800        600.68083503470245     
   8053.9708604169255        4.7057993984667892       -12.862458263602132        613.54329329830455     
   8221.5651057121650        4.6802218974259810       -13.254236817548978        626.79753011585353     
   8389.1593510074035        4.6546505361726513       -13.637716876740924        640.43524699259444     
   8566.8092510203569        4.6275723415660490       -14.035046892550094        654.47029388514454     
   8744.4591510333103        4.6005407533490015       -14.423399669093984        668.89369355423855     
   8922.1090510462636        4.5735735977581413       -14.802969736180563        683.69666329041911     
   9099.7589510592170        4.5466874606166954       -15.173957600839783        698.87062089125891     
   9277.4088510721704        4.5198977919628387       -15.536563744074300        714.40718463533324     
   9465.7177450859017        4.4916262089994401       -15.911745448831240        730.31893008416444     
   9665.3251727404568        4.4618180678697170       -16.299403329807273        746.61833341397175     
   9864.9326003950118        4.4321869245537417       -16.677308853713409        763.29564226768514     
   10064.540028049567        4.4027485800373682       -17.045748440955517        780.34139070864069     
   10264.147455704122        4.3735174385504934       -17.405010664991064        797.74640137363178     
   10463.754883358677        4.3445065775455713       -17.755384413669738        815.50178578730151     
   10663.754883358677        4.3156716932664176       -18.097812308076680        833.59959809537816     
   10863.754883358677        4.2870805873591600       -18.431884881856778        852.03148297723499     
   11063.754883358677        4.2587429841610591       -18.757867636056904        870.78935061329184     
   11263.754883358677        4.2306677262970123       -19.076007189838588        889.86535780313045     
   11463.754883358677        4.2028628881761696       -19.386530954747123        909.25188875787762     
   11663.754883358677        4.1753358104407745       -19.689654339835606        928.94154309771318     
   11863.754883358677        4.1480930846071100       -19.985590772488884        948.92713387020206     
   12063.754883358677        4.1211405085429131       -20.274558119684617        969.20169198988663     
