 #              _____________________  _______________________             #
 #              ___  __ \__  __ \_  / / /_  /___  ____/_  ___/             #
 #              __  / / /_  /_/ /  / / /_  __/_  __/  _____ \              #
 #              _  /_/ /_  _, _// /_/ / / /_ _  /___  ____/ /              #
 #              /_____/ /_/ |_| \____/  \__/ /_____/  /____/               #
 #                                                                         #
  
 #        time                      T            heat flux [W.L-2]   in    x              directions   cumulative flux
 #-----------------------------------------------------------------------------------------------

   0.0000000000000000        5.0949000000000000        4.9675885992045625        4.9675885992045625     
   1.0000000000000000        5.0951846559901206        4.8798016609362946        9.8473902601408572     
   1.8999999999999999        5.0954275616840530        4.8070079105799950        14.654398170720853     
   2.7100000000000000        5.0956361775386316        4.7461288653068978        19.400527036027750     
   3.5200000000000000        5.0958354954346312        4.6895196306977924        24.090046666725542     
   4.3300000000000001        5.0960261616007871        4.6368447660942573        28.726891432819798     
   5.1400000000000006        5.0962087717008604        4.5877963266258934        33.314687759445690     
   5.9500000000000011        5.0963838749664108        4.5420915186226365        37.856779278068323     
   6.7600000000000016        5.0965519779786224        4.4994705624059295        42.356249840474256     
   7.5700000000000021        5.0967135481300714        4.4596947435413714        46.815944584015625     
   8.3800000000000026        5.0968690167945212        4.4225446354182045        51.238489219433831     
   9.1900000000000031        5.0970187822302675        4.3878184775967632        55.626307697030597     
   10.000000000000004        5.0971632122402761        4.3553306958426727        59.981638392873272     
   10.810000000000004        5.0973026469367353        4.3249105076799195        64.306548900553196     
   11.668600000000005        5.0974452068701241        4.2948020601250319        68.601350960678232     
   12.578716000000005        5.0975908376064485        4.2650859343869341        72.866436895065164     
   13.488832000000006        5.0977313583119894        4.2373841270849697        77.103821022150129     
   14.453554960000005        5.0978749725537815        4.2100840991931827        81.313905121343311     
   15.476161297600006        5.0980216433018715        4.1832505740252648        85.497155695368576     
   16.560124015456008        5.0981713369455663        4.1569422070449855        89.654097902413568     
   17.709124496383367        5.0983240238594796        4.1312102438630358        93.785308146276606     
   18.858124977310727        5.0984711755631524        4.1074151665586465        97.892723312835258     
   20.076065487093729        5.0986214189709234        4.0841377477033536        101.97686106053861     
   21.367082427463711        5.0987747414218205        4.0614066898820340        106.03826775042064     
   22.735560384255891        5.0989311321817352        4.0392410498515288        110.07750880027217     
   24.104038341048071        5.0990818691468407        4.0187821502398702        114.09629095051204     
   25.554624975247783        5.0992357975243721        3.9987818431937665        118.09507279370581     
   27.092246807499478        5.0993929065603334        3.9792371757811198        122.07430996948693     
   28.629868639751173        5.0995444182079437        3.9611416198501250        126.03545158933706     
   30.259747781937971        5.0996992058350372        3.9433764295176199        129.97882801885467     
   31.987419672655975        5.0998572372754261        3.9259208016971630        133.90474882055184     
   33.715091563373981        5.1000096518808755        3.9096569766426619        137.81440579719450     
   35.546423767535067        5.1001653384181758        3.8935703584166461        141.70797615561114     
   37.377755971696153        5.1003155331152614        3.8784797597020804        145.58645591531322     
   39.318968108106901        5.1004689595101578        3.8634449558252175        149.44990087113845     
   41.260180244517649        5.1006169458879569        3.8492393322476799        153.29914020338614     
   43.317865109113043        5.1007680475639310        3.8349812942929140        157.13412149767905     
   45.375549973708438        5.1009136896234057        3.8214140599248436        160.95553555760389     
   47.556695930179558        5.1010622486101500        3.8077010250626739        164.76323658266656     
   49.737841886650678        5.1012052608943188        3.7945677312619170        168.55780431392847     
   52.049856600510061        5.1013509060796629        3.7812110618385524        172.33901537576702     
   54.361871314369445        5.1014908559388621        3.7683486585586206        176.10736403432563     
   56.812606911060392        5.1016330674732977        3.7552015005674062        179.86256553489304     
   59.263342507751339        5.1017693812242717        3.7424865202429838        183.60505205513601     
   61.861122240243745        5.1019074987367032        3.7294414363902333        187.33449349152625     
   64.458901972736157        5.1020394708039607        3.7167871681259115        191.05128065965215     
   67.056681705228570        5.1021655076954460        3.7044899776879334        194.75577063734008     
   69.810328221670517        5.1022926670208433        3.6918239058971936        198.44759454323727     
   72.563974738112464        5.1024136012859866        3.6795013359556767        202.12709587919295     
   75.482840045540925        5.1025350337818178        3.6668009767618210        205.79389685595478     
   78.401705352969387        5.1026499326681840        3.6544428668115496        209.44833972276632     
   81.320570660397848        5.1027585098617321        3.6424113161981633        213.09075103896447     
   84.239435967826310        5.1028609672053635        3.6306934692350308        216.72144450819951     
   87.158301275254772        5.1029574977911842        3.6192786262680765        220.34072313446759     
   90.077166582683233        5.1030482869832436        3.6081577193870631        223.94888085385466     
   92.996031890111695        5.1031335132093689        3.5973229085056468        227.54620376236031     
   95.914897197540157        5.1032133485760216        3.5867672715138030        231.13297103387410     
   98.833762504968618        5.1032879593481617        3.5764845677930541        234.70945560166714     
   101.75262781239708        5.1033575063266570        3.5664690588658154        238.27592466053295     
   104.67149311982554        5.1034221451484427        3.5567153733918460        241.83264003392480     
   107.59035842725400        5.1034820267402417        3.5472183935199726        245.37985842744479     
   110.68435565312818        5.1035403293020485        3.5374341980196133        248.91729262546440     
   113.96399271255481        5.1035965183312708        3.5273737372939129        252.44466636275831     
   117.44040799554703        5.1036500022288420        3.5170509963605796        255.96171735911889     
   121.12540819551879        5.1037001294697344        3.5064832384341353        259.46820059755305     
   125.03150840748886        5.1037461859632005        3.4956912370300479        262.96389183458308     
   129.17197463217713        5.1037873926388677        3.4846994919146588        266.44859132649776     
   133.56086883034669        5.1038229032897284        3.4735364240850344        269.92212775058277     
   138.21309668040644        5.1038518026960089        3.4622345447858618        273.38436229536865     
   143.14445820146977        5.1038731049532879        3.4508306713916603        276.83519296676030     
   148.07581972253311        5.1038855407784869        3.4399826565682896        280.27517562332861     
   153.00718124359645        5.1038895491590548        3.4296707373333275        283.70484636066192     
   157.93854276465979        5.1038855447921305        3.4198756043301599        287.12472196499209     
   162.86990428572312        5.1038739193150082        3.4105784310752054        290.53530039606727     
   167.80126580678646        5.1038550425050406        3.4017608967905724        293.93706129285783     
   172.73262732784980        5.1038292634441289        3.3934052028912829        297.33046649574914     
   177.17085269680678        5.1038007130353984        3.3862465439382365        300.71671303968736     
   181.60907806576375        5.1037670426750683        3.3794370765475392        304.09615011623492     
   186.04730343472073        5.1037284700193917        3.3729648819027527        307.46911499813768     
   190.48552880367771        5.1036852016749865        3.3668183945622858        310.83593339269999     
   194.92375417263469        5.1036374337703725        3.3609863998628224        314.19691979256282     
   199.36197954159167        5.1035853523261228        3.3554579859059408        317.55237777846878     
   204.06649843268607        5.1035255094040206        3.3499265100162905        320.90230428848508     
   209.05328845724614        5.1034571021832011        3.3444180378474320        324.24672232633253     
   214.33928588327981        5.1033792667097000        3.3389614049621490        327.58568373129469     
   219.62528330931349        5.1032963559114570        3.3338712399069661        330.91955497120165     
   224.91128073534716        5.1032086039267393        3.3291323377519491        334.24868730895361     
   230.19727816138084        5.1031162311897349        3.3247300923380196        337.57341740129164     
   235.48327558741451        5.1030194452931958        3.3206504765634759        340.89406787785509     
   240.76927301344818        5.1029184417962705        3.3168800226587121        344.21094790051382     
   246.05527043948186        5.1028134049805782        3.3134058026076589        347.52435370312145     
   251.34126786551553        5.1027045085575233        3.3102154088371245        350.83456911195856     
   256.62726529154924        5.1025919163297848        3.3072969352626900        354.14186604722124     
   261.91326271758294        5.1024757828098259        3.3046389587543614        357.44650500597561     
   267.19926014361664        5.1023562537981455        3.3022305210566207        360.74873552703224     
   272.48525756965034        5.1022334669238321        3.3000611112118934        364.04879663824414     
   277.77125499568405        5.1021075521499295        3.2981206484779619        367.34691728672209     
   283.05725242171775        5.1019786322459026        3.2963994657682516        370.64331675249036     
   288.34324984775145        5.1018468232293914        3.2948882936102870        373.93820504610068     
   293.62924727378515        5.1017122347793293        3.2935782446175819        377.23178329071828     
   298.91524469981886        5.1015749706223303        3.2924607984759140        380.52424408919421     
   304.20124212585256        5.1014351288941508        3.2915277874267717        383.81577187662100     
   309.48723955188626        5.1012928024779143        3.2907713822494773        387.10654325887049     
   314.77323697791996        5.1011480793206534        3.2901840787225107        390.39672733759301     
   320.05923440395367        5.1010010427296457        3.2897586845575781        393.68648602215058     
   325.34523182998737        5.1008517716498858        3.2894883067940484        396.97597432894463     
   330.63122925602107        5.1007003409239777        3.2893663396396251        400.26534066858426     
   335.91722668205477        5.1005468215356204        3.2893864527491221        403.55472712133337     
   341.20322410808848        5.1003912805393128        3.2895425788371364        406.84426970017051     
   346.80638137968418        5.1002242118554406        3.2898539934459370        410.13412369361646     
   352.74572808757563        5.1000447378429632        3.2903402085024247        413.42446390211887     
   359.04143559794056        5.0998519155559627        3.2910221298663958        416.71548603198528     
   365.71488555892739        5.0996447326582581        3.2919220578104764        420.00740808979577     
   372.38833551991422        5.0994348585508167        3.2929895788033412        423.30039766859909     
   379.06178548090105        5.0992223877217819        3.2942156882876783        426.59461335688678     
   385.06789044578920        5.0990291258209357        3.2954413881777751        429.89005474506456     
   390.47338491418856        5.0988535844472045        3.2966391352221218        433.18669388028667     
   395.87887938258791        5.0986764805044835        3.2979273192667997        436.48462119955349     
   401.28437385098727        5.0984978550629760        3.2993019374912445        439.78392313704472     
   406.68986831938662        5.0983177472859582        3.3007591567698320        443.08468229381458     
   412.09536278778597        5.0981361945394967        3.3022953062115628        446.38697760002617     
   416.41975836250543        5.0979900459913576        3.3035729253124781        449.69055052533867     
   420.31171437975297        5.0978577910204601        3.3047609490916954        452.99531147443037     
   424.43718775803535        5.0977168054070274        3.3060616575915622        456.30137313202192     
   428.81018953901469        5.0975664841649735        3.3074852292267809        459.60885836124868     
   433.44557142685278        5.0974061784868709        3.3090426240688271        462.91790098531749     
   438.35907622796111        5.0972351925120769        3.3107456193431251        466.22864660466064     
   443.56739131713596        5.0970527798621736        3.3126068424372637        469.54125344709792     
   449.08820531166128        5.0968581399278792        3.3146398005988820        472.85589324769677     
   454.94026814585817        5.0966504138906599        3.3168589064019698        476.17275215409876     
   461.14345475010686        5.0964286804612353        3.3192794979920772        479.49203165209082     
   467.71883255061044        5.0961919516112655        3.3219178469300492        482.81394949902085     
   474.29421035111403        5.0959535719637659        3.3246246765113749        486.13857417553220     
   480.86958815161762        5.0957135805437614        3.3273961383789188        489.46597031391110     
   487.44496595212121        5.0954720146105750        3.3302285726987715        492.79619888660989     
   494.02034375262480        5.0952289097727190        3.3331184980394717        496.12931738464937     
   500.59572155312839        5.0949843000947137        3.3360626017945489        499.46537998644391     
   507.17109935363197        5.0947382181963903        3.3390577311345231        502.80443771757842     
   513.74647715413562        5.0944906953452387        3.3421008844541884        506.14653860203259     
   520.32185495463921        5.0942417615423068        3.3451892032846589        509.49172780531723     
   526.89723275514280        5.0939914456020983        3.3483199646608552        512.84004776997813     
   533.47261055564638        5.0937397752269220        3.3514905738986589        516.19153834387680     
   540.04798835614997        5.0934867770760590        3.3546985577820267        519.54623690165886     
   546.62336615665356        5.0932324768301509        3.3579415581199314        522.90417845977879     
   553.19874395715715        5.0929768992511235        3.3612173256629601        526.26539578544180     
   559.77412175766074        5.0927200682379743        3.3645237143564160        529.62991949979823     
   566.34949955816433        5.0924620068787094        3.3678586759104148        532.99777817570862     
   572.92487735866791        5.0922027374987104        3.3712202546717229        536.36899843038032     
   579.50025515917150        5.0919422817057649        3.3746065827778398        539.74360501315812     
   586.07563295967509        5.0916806604320186        3.3780158755800569        543.12162088873822     
   592.65101076017868        5.0914178939730403        3.3814464273145766        546.50306731605281     
   599.22638856068227        5.0911540020242132        3.3848966070177307        549.88796392307052     
   605.80176636118586        5.0908890037146364        3.3883648546584801        553.27632877772896     
   612.37714416168944        5.0906229176387114        3.3918496774853386        556.66817845521427     
   618.95252196219303        5.0903557618855633        3.3953496465724986        560.06352810178680     
   625.52789976269662        5.0900875540664536        3.3988633935521348        563.46239149533892     
   632.10327756320021        5.0898183113403324        3.4023896075204747        566.86478110285941     
   638.67865536370380        5.0895480504376263        3.4059270321142310        570.27070813497369     
   645.25403316420739        5.0892767876824214        3.4094744627387614        573.68018259771247     
   651.82941096471097        5.0890045389486005        3.4130307329873411        577.09321333069977     
   658.79931143324484        5.0887148660551711        3.4168090045809572        580.51002233528072     
   666.18740592989070        5.0884066104339034        3.4208221644449370        583.93084449972571     
   674.01878609633525        5.0880785335248513        3.4250836345592579        587.35592813428502     
   681.85016626277979        5.0877491548930154        3.4293509656007006        590.78527909988577     
   690.15142923921110        5.0873985792528265        3.4338790986341201        594.21915819851984     
   698.95076799422827        5.0870253902771552        3.4386821854258898        597.65784038394577     
   708.27806707454647        5.0866280740123049        3.4437747716840033        601.10161515562982     
   718.16500409968376        5.0862050122565545        3.4491717344700614        604.55078689009986     
   728.64515734632926        5.0857544755632338        3.4548882023003076        608.00567509240011     
   739.75411978777345        5.0852746157244120        3.4609395079780230        611.46661460037808     
   750.86308222921764        5.0847925222338333        3.4669794447716731        614.93359404514979     
   761.97204467066183        5.0843082507641437        3.4730050089633711        618.40659905411314     
   773.08100711210602        5.0838218554954171        3.4790133513884598        621.88561240550166     
   784.18996955355021        5.0833333891822861        3.4850017639939863        625.37061416949564     
   795.29893199499440        5.0828429035510716        3.4909676054578074        628.86158177495349     
   807.07443218292531        5.0823207791669809        3.4972631730620605        632.35884494801553     
   819.55646238213205        5.0817649129692386        3.5039015262296425        635.86274647424523     
   832.03849258133880        5.0812066997860708        3.5105016890128371        639.37324816325804     
   844.52052278054555        5.0806462046981862        3.5170606251392571        642.89030878839731     
   857.00255297975229        5.0800834909496810        3.5235754157379140        646.41388420413523     
   869.48458317895904        5.0795186199896323        3.5300432453924624        649.94392744952768     
   881.96661337816579        5.0789516515070243        3.5364613892461554        653.48038883877382     
   894.44864357737254        5.0783826434597890        3.5428272010689179        657.02321603984274     
