 #              _____________________  _______________________             #
 #              ___  __ \__  __ \_  / / /_  /___  ____/_  ___/             #
 #              __  / / /_  /_/ /  / / /_  __/_  __/  _____ \              #
 #              _  /_/ /_  _, _// /_/ / / /_ _  /___  ____/ /              #
 #              /_____/ /_/ |_| \____/  \__/ /_____/  /____/               #
 #                                                                         #
  
 #        time                      T            heat flux [W.L-2]   in    x              directions   cumulative flux
 #-----------------------------------------------------------------------------------------------

   0.0000000000000000        4.8296000000000001       -1.9843867658046175        1.9843867658046175     
   1.0000000000000000        4.8303581350398996       -2.2181981318770805        4.2025848976816977     
   1.8999999999999999        4.8310050706230170       -2.4120804878252029        6.6146653855069006     
   2.7100000000000000        4.8315606785815257       -2.5742302830116559        9.1888956685185565     
   3.5200000000000000        4.8320915211773148       -2.7250075242793281        11.913903192797886     
   4.3300000000000001        4.8325993204791438       -2.8653039829581823        14.779207175756067     
   5.1400000000000006        4.8330856640052478       -2.9959380792780630        17.775145255034129     
   5.9500000000000011        4.8335520157787428       -3.1176611066455524        20.892806361679682     
   6.7600000000000016        4.8339997264439791       -3.2311629163530786        24.123969278032760     
   7.5700000000000021        4.8344300425256614       -3.3370771100942487        27.461046388127009     
   8.3800000000000026        4.8348441149052599       -3.4359857835140244        30.897032171641033     
   9.1900000000000031        4.8352430065826280       -3.5284238601983944        34.425456031839431     
   10.000000000000004        4.8356276997847161       -3.6148830520660353        38.040339083905465     
   10.810000000000004        4.8359991039550589       -3.6958160754861544        41.736155159391622     
   11.668600000000005        4.8363788545668998       -3.7758880111998319        45.512043170591454     
   12.578716000000005        4.8367668154068379       -3.8548748705672091        49.366918041158662     
   13.488832000000006        4.8371412014047976       -3.9284609373035564        53.295378978462217     
   14.453554960000005        4.8375238810202461       -4.0009197824181628        57.296298760880383     
   15.476161297600006        4.8379147751251210       -4.0720646763601351        61.368363437240518     
   16.560124015456008        4.8383138200432363       -4.1417220638412600        65.510085501081775     
   17.709124496383367        4.8387209705626155       -4.2097341607185914        69.719819661800372     
   18.858124977310727        4.8391135104909875       -4.2724969355635540        73.992316597363924     
   20.076065487093729        4.8395144936661385       -4.3337349225415158        78.326051519905434     
   21.367082427463711        4.8399239504209914       -4.3933422793382464        82.719393799243676     
   22.735560384255891        4.8403419338389115       -4.4512340330995039        87.170627832343186     
   24.104038341048071        4.8407451871894178       -4.5044220673053292        91.675049899648513     
   25.554624975247783        4.8411574641537616       -4.5561278920031043        96.231177791651618     
   27.092246807499478        4.8415788773558512       -4.6063178809477092        100.83749567259933     
   28.629868639751173        4.8419859678307695       -4.6524410891761576        105.48993676177548     
   30.259747781937971        4.8424027241065817       -4.6973303693868367        110.18726713116232     
   31.987419672655975        4.8428292882853547       -4.7410000531027245        114.92826718426504     
   33.715091563373981        4.8432418695813668       -4.7812610856079765        119.70952826987302     
   35.546423767535067        4.8436647508855932       -4.8206246919800035        124.53015296185302     
   37.377755971696153        4.8440742748288672       -4.8571232179616715        129.38727617981471     
   39.318968108106901        4.8444944925259197       -4.8930533797691016        134.28032955958381     
   41.260180244517649        4.8449018162035387       -4.9266274327898234        139.20695699237362     
   43.317865109113043        4.8453200991507615       -4.9599863330150047        144.16694332538862     
   45.375549973708438        4.8457257728822505       -4.9914849887043626        149.15842831409299     
   47.556695930179558        4.8461425030240903       -5.0231734850535341        154.18160179914653     
   49.737841886650678        4.8465467042325834       -5.0535140326909183        159.23511583183745     
   52.049856600510061        4.8469618331722728       -5.0845412005670383        164.31965703240448     
   54.361871314369445        4.8473642671245836       -5.1147874363234216        169.43444446872789     
   56.812606911060392        4.8477771902576343       -5.1463630192598373        174.58080748798773     
   59.263342507751339        4.8481769407878774       -5.1778266517499016        179.75863413973764     
   61.861122240243745        4.8485863097441966       -5.2114778261375072        184.97011196587513     
   64.458901972736157        4.8489816195700088       -5.2458430905264741        190.21595505640161     
   67.056681705228570        4.8493630606057545       -5.2813284089513921        195.49728346535301     
   69.810328221670517        4.8497518973719282       -5.3206757103462534        200.81795917569926     
   72.563974738112464        4.8501252095112246       -5.3622272829768995        206.18018645867616     
   75.482840045540925        4.8505032935392647       -5.4093016004791865        211.58948805915534     
   78.401705352969387        4.8508634296673110       -5.4599553365141089        217.04944339566944     
   81.320570660397848        4.8512051717846214       -5.5147313542128806        222.56417474988231     
   84.239435967826310        4.8515279568024914       -5.5741650816992756        228.13833983158159     
   87.158301275254772        4.8518311130638265       -5.6387828279791004        233.77712265956069     
   90.077166582683233        4.8521138684814540       -5.7090998459551141        239.48622250551580     
   92.996031890111695        4.8523753585125089       -5.7856182528545226        245.27184075837033     
   95.914897197540157        4.8526146340390133       -5.8688248935862672        251.14066565195660     
   98.833762504968618        4.8528306691965879       -5.9591892138177966        257.09985486577438     
   101.75262781239708        4.8530223691717849       -6.0571611953548814        263.15701606112924     
   104.67149311982554        4.8531885779723716       -6.1631693955656237        269.32018545669484     
   107.59035842725400        4.8533280793525444       -6.2776202110280055        275.59780566772287     
   110.68435565312818        4.8534444512943056       -6.4088739797646523        282.00667964748754     
   113.96399271255481        4.8535305702974689       -6.5596619182398133        288.56634156572738     
   117.44040799554703        4.8535777683851231       -6.7331302929840575        295.29947185871146     
   121.12540819551879        4.8535755328701153       -6.9328859205797615        302.23235777929119     
   125.03150840748886        4.8535111581076098       -7.1630405092638529        309.39539828855504     
   129.17197463217713        4.8533693456066764       -7.4282514525358607        316.82364974109089     
   133.56086883034669        4.8531317501551818       -7.7337560444009679        324.55740578549188     
   138.21309668040644        4.8527764715523700       -8.0853954301931203        332.64280121568498     
   143.14445820146977        4.8522775389790027       -8.4896167153133621        341.13241793099837     
   148.07581972253311        4.8516503449857780       -8.9253457421586386        350.05776367315701     
   153.00718124359645        4.8508893403507383       -9.3923856032571784        359.45014927641421     
   157.93854276465979        4.8499893580968951       -9.8903382692284154        369.34048754564265     
   162.86990428572312        4.8489456502505197       -10.418621139759448        379.75910868540211     
   167.80126580678646        4.8477539164029659       -10.976484784517766        390.73559346991988     
   172.73262732784980        4.8464103243530303       -11.563031521272469        402.29862499119236     
   177.17085269680678        4.8450756084903084       -12.113416208456528        414.41204119964891     
   181.60907806576375        4.8436132516092547       -12.685477830877652        427.09751903052654     
   186.04730343472073        4.8420214167425462       -13.278337614190290        440.37585664471681     
   190.48552880367771        4.8402985855688563       -13.891064771002419        454.26692141571925     
   194.92375417263469        4.8384435530968730       -14.522687460011044        468.78960887573032     
   199.36197954159167        4.8364553271419384       -15.172229774637275        483.96183865036761     
   204.06649843268607        4.8341975363982943       -15.879634544237124        499.84147319460476     
   209.05328845724614        4.8316350476037240       -16.649235487586658        516.49070868219144     
   214.33928588327981        4.8287288944348514       -17.485405475680277        533.97611415787173     
   219.62528330931349        4.8256332717089032       -18.340258624567049        552.31637278243875     
   224.91128073534716        4.8223492187081591       -19.212071481135624        571.52844426357433     
   230.19727816138084        4.8188782029413737       -20.099152472794518        591.62759673636890     
   235.48327558741451        4.8152220851895562       -20.999849766079002        612.62744650244792     
   240.76927301344818        4.8113830852920048       -21.912557660366172        634.54000416281406     
   246.05527043948186        4.8073637489133949       -22.835721717883068        657.37572588069713     
   251.34126786551553        4.8031669154560639       -23.767842813377907        681.14356869407504     
   256.62726529154924        4.7987956872200623       -24.707480274225631        705.85104896830069     
   261.91326271758294        4.7942533998691728       -25.653254258096069        731.50430322639681     
   267.19926014361664        4.7895435942343720       -26.603847482995853        758.10815070939270     
   272.48525756965034        4.7846699894747555       -27.558006391018512        785.66615710041117     
   277.77125499568405        4.7796364576147106       -28.514541799512294        814.18069889992341     
   283.05725242171775        4.7744469994795029       -29.472329075439973        843.65302797536333     
   288.34324984775145        4.7691057220544693       -30.430307860953597        874.08333583631691     
   293.62924727378515        4.7636168172923554       -31.387481378739789        905.47081721505674     
   298.91524469981886        4.7579845423875513       -32.342915351560244        937.81373256661698     
   304.20124212585256        4.7522132015250271       -33.295736578515474        971.10946914513249     
   309.48723955188626        4.7463071290967749       -34.245131218341641        1005.3546003634741     
   314.77323697791996        4.7402706743612395       -35.190342835804103        1040.5449431992781     
   320.05923440395367        4.7341081875033391       -36.130670270014704        1076.6756134692928     
   325.34523182998737        4.7278240070359088       -37.065465383132398        1113.7410788524253     
   330.63122925602107        4.7214224484689016       -37.994130744621842        1151.7352095970471     
   335.91722668205477        4.7149077941614701       -38.916117300748063        1190.6513268977951     
   341.20322410808848        4.7082841034347043       -39.830957711829775        1230.4822846096249     
   346.80638137968418        4.7011456224403609       -40.792105067552811        1271.2743896771776     
   352.74572808757563        4.6934527832054433       -41.800700771705912        1313.0750904488834     
   359.04143559794056        4.6851635501301816       -42.857718858068537        1355.9328093069519     
   365.71488555892739        4.6762338074345733       -43.963809903828341        1399.8966192107803     
   372.38833551991422        4.6671683481281239       -45.055071396807769        1444.9516906075880     
   379.06178548090105        4.6579747110811445       -46.131033920497615        1491.0827245280857     
   385.06789044578920        4.6496019676402698       -47.086712850422344        1538.1694373785081     
   390.47338491418856        4.6419905413685907       -47.936368150153811        1586.1058055286619     
   395.87887938258791        4.6343068542791439       -48.775427115800348        1634.8812326444622     
   401.28437385098727        4.6265544934221925       -49.603781346879707        1684.4850139913419     
   406.68986831938662        4.6187369287691382       -50.421360771426620        1734.9063747627686     
   412.09536278778597        4.6108575051088279       -51.228136546340338        1786.1345113091088     
   416.41975836250543        4.6045160348618426       -51.866640683835399        1838.0011519929442     
   420.31171437975297        4.5987789250668705       -52.435767135489591        1890.4369191284338     
   424.43718775803535        4.5926656988252059       -53.032798248394094        1943.4697173768279     
   428.81018953901469        4.5861513904121116       -53.658687320479594        1997.1284046973076     
   433.44557142685278        4.5792094534095495       -54.314386263073843        2051.4427909603814     
   438.35907622796111        4.5718116737668977       -55.000846301037960        2106.4436372614196     
   443.56739131713596        4.5639280786131025       -55.719017635446036        2162.1626548968657     
   449.08820531166128        4.5555268422726609       -56.469846019992637        2218.6325009168581     
   454.94026814585817        4.5465741925897669       -57.254263859100035        2275.8867647759580     
   461.14345475010686        4.5370343226272221       -58.073173527587507        2333.9599383035456     
   467.71883255061044        4.5268698760821922       -58.927484467414246        2392.8874227709598     
   474.29421035111403        4.5166558865189046       -59.768377323741106        2452.6558000947007     
   480.86958815161762        4.5063954849591905       -60.596084052009886        2513.2518841467104     
   487.44496595212121        4.4960917039211301       -61.410778726853813        2574.6626628735644     
   494.02034375262480        4.4857475061441612       -62.212585897877140        2636.8752487714414     
   500.59572155312839        4.4753658038743902       -63.001592179357147        2699.8768409507984     
   507.17109935363197        4.4649494697606116       -63.777858330173466        2763.6546992809717     
   513.74647715413562        4.4545013410734899       -64.541430202653927        2828.1961294836256     
   520.32185495463921        4.4440242190788828       -65.292347823179838        2893.4884773068052     
   526.89723275514280        4.4335208651968046       -66.030652447020401        2959.5191297538254     
   533.47261055564638        4.4229939952656725       -66.756391732542667        3026.2755214863682     
   540.04798835614997        4.4124462729075313       -67.469623308148755        3093.7451447945168     
   546.62336615665356        4.4018803027044831       -68.170417034272205        3161.9155618287891     
   553.19874395715715        4.3912986236658176       -68.858856243442148        3230.7744180722311     
   559.77412175766074        4.3807037028887148       -69.535039467092673        3300.3094575393238     
   566.34949955816433        4.3700979287142196       -70.199082648687920        3370.5085401880119     
   572.92487735866791        4.3594836069030398       -70.851116779686365        3441.3596569676984     
   579.50025515917150        4.3488629580916145       -71.491285098563779        3512.8509420662622     
   586.07563295967509        4.3382381181784968       -72.119738438479928        3584.9706805047422     
   592.65101076017868        4.3276111406146685       -72.736630817610006        3657.7073113223523     
   599.22638856068227        4.3169839998449318       -73.342116040656236        3731.0494273630084     
   605.80176636118586        4.3063585950542347       -73.936345698319258        3804.9857730613276     
   612.37714416168944        4.2957367535045101       -74.519468613731078        3879.5052416750586     
   618.95252196219303        4.2851202329748848       -75.091631514567993        3954.5968731896264     
   625.52789976269662        4.2745107230814678       -75.652980544026335        4030.2498537336528     
   632.10327756320021        4.2639098454867792       -76.203663184171788        4106.4535169178243     
   638.67865536370380        4.2533191531869958       -76.743830192304600        4183.1973471101292     
   645.25403316420739        4.2427401291590208       -77.273637267438730        4260.4709843775681     
   651.82941096471097        4.2321738524386836       -77.793503363763676        4338.2644877413322     
   658.79931143324484        4.2209895927178209       -78.333410281246245        4416.5978980225782     
   666.18740592989070        4.2091539665140605       -78.893430649312762        4495.4913286718911     
   674.01878609633525        4.1966332014297567       -79.473067423165773        4574.9643960950571     
   681.85016626277979        4.1841375502341727       -80.039946571601163        4655.0043426666580     
   690.15142923921110        4.1709230391965635       -80.626464336278801        4735.6308070029372     
   698.95076799422827        4.1569523395359482       -81.232544593324960        4816.8633515962620     
   708.27806707454647        4.1421866518111070       -81.858087076309047        4898.7214386725709     
   718.16500409968376        4.1265856371827887       -82.502990801938239        4981.2244294745087     
   728.64515734632926        4.1101073281605878       -83.167173619794241        5064.3916030943028     
   739.75411978777345        4.0927121829161166       -83.849555188190209        5148.2411582824934     
   750.86308222921764        4.0753867730194528       -84.512436618203694        5232.7535949006970     
   761.97204467066183        4.0581319653394434       -85.156747089597147        5317.9103419902940     
   773.08100711210602        4.0409485834188166       -85.783166619714450        5403.6935086100084     
   784.18996955355021        4.0238375647553601       -86.392139478333263        5490.0856480883413     
   795.29893199499440        4.0067956306578729       -86.984621092417797        5577.0702691807592     
   807.07443218292531        3.9888149447404029       -87.593479013963730        5664.6637481947228     
   819.55646238213205        3.9698571903951163       -88.216898596945313        5752.8806467916684     
   832.03849258133880        3.9509981907623066       -88.819547394406769        5841.7001941860754     
   844.52052278054555        3.9322398423232414       -89.401952902143506        5931.1021470882188     
   857.00255297975229        3.9135838201576663       -89.964743981687789        6021.0668910699069     
   869.48458317895904        3.8950315848031938       -90.508572306635102        6111.5754633765418     
   881.96661337816579        3.8765844637174056       -91.034023744159612        6202.6094871207015     
   894.44864357737254        3.8582437521965991       -91.541572090217585        6294.1510592109189     
