 #              _____________________  _______________________             #
 #              ___  __ \__  __ \_  / / /_  /___  ____/_  ___/             #
 #              __  / / /_  /_/ /  / / /_  __/_  __/  _____ \              #
 #              _  /_/ /_  _, _// /_/ / / /_ _  /___  ____/ /              #
 #              /_____/ /_/ |_| \____/  \__/ /_____/  /____/               #
 #                                                                         #
  
 #        time                      T            heat flux [W.L-2]   in    x              directions   cumulative flux
 #-----------------------------------------------------------------------------------------------

   0.0000000000000000        5.4707999999999997       0.83978313309574926       0.83978313309574926     
   1.0000000000000000        5.4701489819243445        1.0097796551931792        1.8495627882889285     
   1.9540000000000002        5.4695614078592163        1.1586998141508489        3.0082626024397774     
   2.8641160000000001        5.4690289838208113        1.2897501319648592        4.2980127344046366     
   3.8288389600000006        5.4684936515206397        1.4174080296902691        5.7154207640949055     
   4.8514452976000007        5.4679560669859502        1.5412852598336886        7.2567060239285937     
   5.9354080154560007        5.4674168297888803        1.6610263668066991        8.9177323907352921     
   7.0844084963833609        5.4668764701943520        1.7763147954294380        10.694047186164731     
   8.3023490061663630        5.4663354372507511        1.8868784541874783        12.580925640352209     
   9.5933659465363448        5.4657940882632197        1.9924945299120547        14.573420170264264     
   10.961843903328527        5.4652526800787564        2.0929933611213403        16.666413531385604     
   12.412430537528239        5.4647113625795720        2.1882611984970950        18.854674729882699     
   13.950052369779934        5.4641701747251528        2.2782417130642361        21.132916442946936     
   15.579931511966731        5.4636290434046364        2.3629361548926093        23.495852597839544     
   17.307603402684734        5.4630877852616182        2.4424021160562495        25.938254713895795     
   19.138935606845820        5.4625461115372742        2.5167509087277953        28.455005622623588     
   21.080147743256571        5.4620036358504933        2.5861436294831579        31.041149252106745     
   23.137832607851966        5.4614598847027302        2.6507860403777324        33.691935292484480     
   25.318978564323086        5.4609143103688096        2.7109224519273023        36.402857744411783     
   27.630993278182473        5.4603663057213847        2.7668288388472182        39.169686583259001     
   30.081728874873424        5.4598152204445061        2.8188054525311004        41.988492035790102     
   32.679508607365833        5.4592603780276239        2.8671692121480712        44.855661247938173     
   35.433155123807786        5.4587010929002462        2.9122461572843394        47.767907405222509     
   38.352020431236255        5.4581366870719004        2.9543642292057566        50.722271634428267     
   41.446017657110431        5.4575665056812328        2.9938466164689466        53.716118250897210     
   44.725654716537058        5.4569899309287511        3.0310058565486253        56.747124107445835     
   48.202069999529286        5.4564063939635563        3.0661388324070842        59.813262939852919     
   51.887070199501046        5.4558153844076962        3.0995227459471657        62.912785685800088     
   55.793170411471110        5.4552164573232504        3.1314120939338230        66.044197779733906     
   59.933636636159378        5.4546092375479907        3.1620366205007908        69.206234400234692     
   63.444751994695032        5.4541124846822173        3.1860826702982519        72.392317070532940     
   67.166534274742830        5.4536046133369620        3.2097488572946271        75.602065927827567     
   70.888316554790620        5.4531139451931274        3.2318606713076155        78.833926599135182     
   74.833405771641281        5.4526116466700074        3.2538049150223332        82.087731514157511     
   79.015200341502975        5.4520976600549016        3.2756234065681995        85.363354920725712     
   83.447902585556378        5.4515719561002181        3.2973519192786225        88.660706840004337     
   88.146566964252983        5.4510345332000769        3.3190196979988733        91.979726538003206     
   93.127151205671382        5.4504854157087790        3.3406491400508189        95.320375678054020     
   98.406570501574890        5.4499246514198898        3.3622556289456713        98.682631306999696     
   104.00275495523260        5.4493523082439612        3.3838475061973985        102.06647881319709     
   109.93471047610979        5.4487684701392460        3.4054261651855953        105.47190497838270     
   115.86666599698697        5.4482057546805622        3.4258294578241029        108.89773443620680     
   122.15453884911678        5.4476311937321693        3.4462661309237745        112.34400056713058     
   128.81968407237437        5.4470448707737100        3.4667183609676706        115.81071892809825     
   135.88473800902742        5.4464468682106792        3.4871634148118211        119.29788234291007     
   143.37369518187967        5.4458372616920512        3.5075739380865039        122.80545628099658     
   151.31198978510304        5.4452161140653201        3.5279182979649741        126.33337457896155     
   159.72658206451982        5.4445834690399675        3.5481609734780233        129.88153555243957     
   168.64604988070161        5.4439393446286957        3.5682629866180884        133.44979853905767     
   178.10068576585431        5.4432837264310425        3.5881823672397464        137.03798090629741     
   188.12259980411616        5.4426165608163739        3.6078746441391329        140.64585555043655     
   198.74582868467374        5.4419377480527125        3.6272933537298639        144.27314890416642     
   209.36905756523132        5.4412848139742964        3.6453823604630515        147.91853126462948     
   219.99228644578889        5.4406555426025767        3.6622525232114942        151.58078378784097     
   230.61551532634647        5.4400479652758635        3.6780024695466564        155.25878625738764     
   241.23874420690404        5.4394603267110844        3.6927204076362270        158.95150666502386     
   252.49936682029508        5.4388579741564138        3.7072556769293650        162.65876234195323     
   264.43562679048955        5.4382406008946766        3.7215651857534171        166.38032752770664     
   276.37188676068405        5.4376426009481351        3.7348659223161782        170.11519345002282     
   288.30814673087855        5.4370624140841288        3.7472378638960375        173.86243131391885     
   300.96058229928468        5.4364657759434314        3.7593937662288934        177.62182508014774     
   314.37216400179523        5.4358522183978080        3.7712927604692372        181.39311784061698     
   328.58844060645640        5.4352212134238194        3.7828933756738268        185.17601121629082     
   343.65769380739721        5.4345721655547345        3.7941536615083691        188.97016487779919     
   359.63110220039448        5.4339044038200637        3.8050312737752923        192.77519615157448     
   376.56291509697161        5.4332171731295515        3.8154835137618348        196.59067966533632     
   394.51063676734333        5.4325096250535037        3.8254673134638972        200.41614697880021     
   413.53522173793738        5.4317808079484742        3.8349391603620004        204.25108613916223     
   432.55980670853143        5.4310711389359181        3.8434048591108394        208.09449099827307     
   451.58439167912547        5.4303788222828739        3.8509562600994549        211.94544725837252     
   471.75045174795520        5.4296625820095006        3.8580288890760590        215.80347614744858     
   491.91651181678492        5.4289622945595042        3.8642532081717129        219.66772935562028     
   512.08257188561458        5.4282764852607315        3.8697025772477884        223.53743193286806     
   533.45859555857407        5.4275642413989864        3.8746846022852450        227.41211653515330     
   554.83461923153357        5.4268653319891058        3.8789394044473546        231.29105593960065     
   577.49320432487059        5.4261380157714072        3.8827022658076960        235.17375820540835     
   601.51130452380789        5.4253807304795920        3.8859238478730687        239.05968205328142     
   626.97049073468145        5.4245917633332468        3.8885518955479603        242.94823394882937     
   652.42967694555500        5.4238151335232194        3.8904585232167426        246.83869247204612     
   679.41641432908091        5.4230042797319449        3.8917366007925138        250.73042907283863     
   706.40315171260681        5.4222044826742284        3.8923306234698010        254.62275969630844     
   733.38988909613272        5.4214145723065039        3.8922919602174959        258.51505165652594     
   760.37662647965863        5.4206335050535763        3.8916654410052276        262.40671709753116     
   787.36336386318453        5.4198603462865016        3.8904901497733673        266.29720724730453     
   815.96930548972205        5.4190486883794833        3.8886678808035042        270.18587512810802     
   846.29160361385175        5.4181961365395015        3.8861291714434225        274.07200429955145     
   876.61390173798145        5.4173504362703362        3.8830174695699471        277.95502176912140     
   908.75553774955893        5.4164606677699885        3.8791084261706690        281.83413019529206     
   940.89717376113640        5.4155766406108485        3.8746150681450073        285.70874526343709     
   973.03880977271388        5.4146974977573468        3.8695573663421259        289.57830262977922     
   1005.1804457842914        5.4138224429757518        3.8639493615182876        293.44225199129750     
   1037.3220817958688        5.4129507281079841        3.8577995393666362        297.30005153066412     
   1069.4637178074463        5.4120816419874078        3.8511111753534109        301.15116270601754     
   1103.5338519797185        5.4111625512632830        3.8434141653265566        304.99457687134412     
   1137.6039861519907        5.4102448109518768        3.8351018640467949        308.82967873539093     
   1171.6741203242630        5.4093276445094638        3.8261610441489249        312.65583977953986     
   1207.7884625468714        5.4083551747597749        3.8159557331498375        316.47179551268971     
   1246.0696653028365        5.4073229534438507        3.8042871789745929        320.27608269166433     
   1286.6477402241594        5.4062259010059197        3.7909156158234869        324.06699830748784     
   1327.2258151454823        5.4051246055593873        3.7764878333238001        327.84348614081165     
   1370.2385745620845        5.4039508241843510        3.7599373162989798        331.60342345711064     
   1413.2513339786867        5.4027689502895342        3.7420540798881192        335.34547753699877     
   1456.2640933952889        5.4015772538505482        3.7227585064066173        339.06823604340536     
   1499.2768528118911        5.4003739593481637        3.7019683451445622        342.77020438854993     
   1542.2896122284933        5.3991572479494714        3.6795999698826094        346.44980435843252     
   1587.8831372100917        5.3978502428668058        3.6540164267833322        350.10382078521587     
   1624.3579571953705        5.3967924199940160        3.6323001548394283        353.73612094005529     
   1663.0212663797661        5.3956560065655221        3.6078177415169428        357.34393868157224     
   1701.6845755641616        5.3945030643030805        3.5818144883169212        360.92575316988916     
   1742.6676832996209        5.3932606831667549        3.5524761749479645        364.47822934483713     
   1783.6507910350801        5.3919963409959646        3.5213001392931096        367.99952948413022     
   1824.6338987705394        5.3907083369007154        3.4882271642536509        371.48775664838388     
   1868.0759929701262        5.3893144454525439        3.4509729834055891        374.93872963178944     
   1914.1246128216883        5.3878023881292556        3.4089442622899608        378.34767389407938     
   1962.9361498643441        5.3861579959599162        3.3614655266045643        381.70913942068393     
   2011.7476869069999        5.3844692293707741        3.3109930595234496        385.02013248020739     
   2063.4879161722151        5.3826260630777565        3.2540630479479895        388.27419552815536     
   2118.3325591933431        5.3806089598406404        3.1898021295739025        391.46399765772924     
   2173.1772022144710        5.3785249285734160        3.1215797752889651        394.58557743301822     
   2228.0218452355989        5.3763705353556421        3.0493650461917845        397.63494247921000     
   2282.8664882567268        5.3741425060440040        2.9731419026055832        400.60808438181556     
   2337.7111312778547        5.3718377365082901        2.8929085037190014        403.50099288553457     
   2392.5557742989827        5.3694533009800853        2.8086765113931200        406.30966939692769     
   2450.6910959013785        5.3668330360225518        2.7149277448555815        409.02459714178326     
   2512.3145367999177        5.3639477567568328        2.6105936409594990        411.63519078274277     
   2561.6132895187493        5.3615688402890314        2.5239866073607202        414.15917739010348     
   2610.9120422375809        5.3591176552478874        2.4342812225294179        416.59345861263290     
   2660.2107949564124        5.3565927520559287        2.3415247981235554        418.93498341075644     
   2712.4674728383739        5.3538319563982313        2.2398379377751096        421.17482134853157     
   2767.8595513932528        5.3508090125791838        2.1283519611364454        423.30317330966801     
   2826.5751546614247        5.3474945220209973        2.0061300855618605        425.30930339522985     
   2888.8136941256867        5.3438555971072361        1.8721645228048165        427.18146791803468     
   2954.7865459578047        5.3398555038338440        1.7253791343649669        428.90684705239966     
   3007.5648274234991        5.3365632724943577        1.6049843630990039        430.51183141549865     
   3063.5098057771352        5.3329692428874935        1.4741438623154084        431.98597527781408     
   3119.4547841307713        5.3292704070386794        1.3401984106978624        433.32617368851191     
   3178.7564611856255        5.3252314398148366        1.1948697429588633        434.52104343147079     
   3241.6162388637708        5.3208170532663779        1.0372320700615558        435.55827550153236     
   3308.2476032026048        5.3159882478636451       0.86630864436017352        436.42458414589254     
   3374.8789675414387        5.3110101343822347       0.69176468882838005        437.11634883472090     
   3445.5082137406030        5.3055661966705436       0.50292516231644480        437.61927399703734     
   3516.1374599397673        5.2999560491211071       0.31050641242696186        437.92978040946429     
   3591.0044609108813        5.2938239933222819       0.10280752805064175        438.03258793751490     
   3665.8714618819954        5.2875084146470748      -0.10834460969567251        438.14093254721058     
   3740.7384628531095        5.2810113800048661      -0.32267401257231754        438.46360655978287     
   3815.6054638242235        5.2743352209745868      -0.53991152926386277        439.00351808904674     
   3894.9644848536045        5.2670603022862190      -0.77313977140755197        439.77665786045429     
   3979.0850471447484        5.2591301953920766       -1.0233257153076780        440.79998357576198     
   4068.2528431733608        5.2504836783299123       -1.2914439140086551        442.09142748977064     
   4157.4206392019732        5.2416019911590928       -1.5620913195427351        443.65351880931337     
   4228.7548760248628        5.2343490283580074       -1.7800340646243527        445.43355287393774     
   4304.3691670571261        5.2264985999686537       -2.0124345127287899        447.44598738666656     
   4384.5203155513254        5.2179991821644887       -2.2600800152560865        449.70606740192267     
   4469.4805329551764        5.2087951948537325       -2.5237623934512223        452.22982979537392     
   4554.4407503590273        5.1994020677942796       -2.7883538455329373        455.01818364090684     
   4639.4009677628783        5.1898253493797721       -3.0536002257103183        458.07178386661718     
   4729.4587982109606        5.1794744272378637       -3.3352131571347070        461.40699702375190     
   4824.9200984859272        5.1682861959376503       -3.6339142488772693        465.04091127262916     
   4920.3813987608937        5.1568897553825259       -3.9325118446524301        468.97342311728158     
   4981.4766309368724        5.1495128624493738       -4.1234968989655059        473.09692001624711     
   5046.2375770434101        5.1416024153660391       -4.3257274191189143        477.42264743536600     
   5110.9985231499477        5.1336035322218549       -4.5276650660649489        481.95031250143097     
   5179.6451260228778        5.1250283198156623       -4.7413010987647768        486.69161360019575     
   5252.4105250681832        5.1158338013977449       -4.9671861153909438        491.65879971558667     
   5329.5418480562075        5.1059740232757198       -5.2058737262126291        496.86467344179931     
   5406.6731710442318        5.0960047764250866       -5.4437069864855658        502.30838042828486     
   5483.8044940322561        5.0859301373895978       -5.6805894191522111        507.98896984743709     
   5560.9358170202804        5.0757541352019953       -5.9164313528834223        513.90540120032051     
   5642.6950193875855        5.0648584134626473       -6.1651564063127422        520.07055760663320     
   5729.3597738969293        5.0531918449128144       -6.4272732448081182        526.49783085144134     
   5802.8514857208529        5.0432177212827307       -6.6483850999513887        533.14621595139272     
   5880.7527002542120        5.0325581914673574       -6.8813907074717653        540.02760665886444     
   5958.6539147875710        5.0218155493194629       -7.1129615486953144        547.14056820755980     
   6036.5551293209301        5.0109935757930657       -7.3430410891626492        554.48360929672242     
   6114.4563438542891        5.0000959852608684       -7.5715775808525247        562.05518687757490     
   6197.0316312596497        4.9884639121165595       -7.8120370441702649        569.86722392174511     
   6279.6069186650102        4.9767554611949283       -8.0506568012148136        577.91788072295992     
   6362.1822060703707        4.9649747924667329       -8.2873919523032136        586.20527267526313     
   6449.7120107200526        4.9524109784690680       -8.5361669110875606        594.74143958635068     
   6542.4936036487161        4.9390132164147387       -8.7973879829043504        603.53882756925498     
   6635.2751965773796        4.9255408087603127       -9.0560865540651356        612.59491412332011     
   6733.6236850817622        4.9111825162658418       -9.3274317412040286        621.92234586452412     
   6831.9721735861449        4.8967528342264615       -9.5958672757693080        631.51821314029348     
