 #              _____________________  _______________________             #
 #              ___  __ \__  __ \_  / / /_  /___  ____/_  ___/             #
 #              __  / / /_  /_/ /  / / /_  __/_  __/  _____ \              #
 #              _  /_/ /_  _, _// /_/ / / /_ _  /___  ____/ /              #
 #              /_____/ /_/ |_| \____/  \__/ /_____/  /____/               #
 #                                                                         #
  
 #        time                      T            heat flux [W.L-2]   in    x              directions   cumulative flux
 #-----------------------------------------------------------------------------------------------

   0.0000000000000000        5.5797999999999996       -5.0279443959888326        5.0279443959888326     
   1.0000000000000000        5.5792416555167250       -4.8821448880688916        9.9100892840577242     
   1.9540000000000002        5.5787377224715966       -4.7544220840464204        14.664511368104144     
   2.8641160000000001        5.5782810877354692       -4.6420262399713881        19.306537608075530     
   3.8288389600000006        5.5778219572953764       -4.5325415230681347        23.839079131143663     
   4.8514452976000007        5.5773608931929601       -4.4263024164201124        28.265381547563777     
   5.9354080154560007        5.5768984085376658       -4.3236161724786450        32.588997720042421     
   7.0844084963833609        5.5764349561482982       -4.2247579111240361        36.813755631166458     
   8.3023490061663630        5.5759709178448844       -4.1299662574766920        40.943721888643154     
   9.5933659465363448        5.5755065947150042       -4.0394396956389054        44.983161584282058     
   10.961843903328527        5.5750421986587533       -3.9533338011209995        48.936495385403056     
   12.412430537528239        5.5745778454775001       -3.8717594907878330        52.808254876190887     
   13.950052369779934        5.5741135497135144       -3.7947823947545993        56.603037270945485     
   15.579931511966731        5.5736492213720945       -3.7224234105588261        60.325460681504310     
   17.307603402684734        5.5731846645681067       -3.6546604478217866        63.980121129326093     
   19.138935606845820        5.5727195780401271       -3.5914313141822389        67.571552443508338     
   21.080147743256571        5.5722535573742640       -3.5326376340499350        71.104190077558272     
   23.137832607851966        5.5717860986840986       -3.4781496348585645        74.582339712416839     
   25.318978564323086        5.5713166034115078       -3.4278115855631950        78.010151297980030     
   27.630993278182473        5.5708443838535695       -3.3814476335696102        81.391598931549638     
   30.081728874873424        5.5703686689903256       -3.3388677630405290        84.730466694590163     
   32.679508607365833        5.5698886101916703       -3.2998735924327915        88.030340287022952     
   35.433155123807786        5.5694032864208909       -3.2642637435683315        91.294604030591287     
   38.352020431236255        5.5689117086257145       -3.2318385480616310        94.526442578652919     
   41.446017657110431        5.5684128231094991       -3.2024039071166941        97.728846485769608     
   44.725654716537058        5.5679055137967488       -3.1757741834011646        100.90462066917077     
   48.202069999529286        5.5673886034367364       -3.1517740732192903        104.05639474239005     
   51.887070199501046        5.5668608539139308       -3.1302394771097157        107.18663421949977     
   55.793170411471110        5.5663209659415491       -3.1110174508134731        110.29765167031324     
   59.933636636159378        5.5657675784939116       -3.0939653705291268        113.39161704084238     
   64.322530834328944        5.5651992683769773       -3.0789494823846546        116.47056652322703     
   68.974758684388689        5.5646145503409805       -3.0658430240034904        119.53640954723052     
   73.626986534448434        5.5640451911618278       -3.0550509243425932        122.59146047157311     
   78.558348055511757        5.5634566605029123       -3.0457438043613707        125.63720427593448     
   83.785591267838882        5.5628474629443625       -3.0378324511021559        128.67503672703663     
   89.326469072905638        5.5622160448028355       -3.0312245251693968        131.70626125220602     
   95.199799546276395        5.5615607995783147       -3.0258232944128518        134.73208454661886     
   101.42552984804939        5.5608800747547429       -3.0215265785095258        137.75361112512840     
   108.02480396792878        5.5601721798459263       -3.0182259522150408        140.77183707734343     
   115.02003453500092        5.5594353954947664       -3.0158062523856519        143.78764332972909     
   122.43497893609739        5.5586679833443178       -3.0141454442384039        146.80178877396750     
   130.29482000125967        5.5578681962904524       -3.0131149296312718        149.81490370359879     
   138.62625153033167        5.5570342885752648       -3.0125804286318636        152.82748413223064     
   147.45756895114800        5.5561645249527629       -3.0124036403174208        155.83988777254805     
   156.81876541721331        5.5552571878037060       -3.0124449951038246        158.85233276765189     
   166.74163367124254        5.5543105805276580       -3.0125679536307319        161.86490072128262     
   177.25987402051351        5.5533230247138619       -3.0126454884162355        164.87754620969886     
   188.40920879074073        5.5522928473935469       -3.0125695998130162        167.89011580951188     
   200.22750364718161        5.5512183530097712       -3.0122649527224508        170.90238076223434     
   212.04579850362248        5.5501602806155175       -3.0117481297400719        173.91412889197443     
   223.86409336006335        5.5491176183471671       -3.0110806816889912        176.92520957366341     
   235.68238821650422        5.5480893660937349       -3.0103667297132986        179.93557630337671     
   248.20978076433153        5.5470143846250277       -3.0097280307659204        182.94530433414263     
   261.48881686502847        5.5458901688563804       -3.0094367100354269        185.95474104417806     
   274.76785296572541        5.5447795386125218       -3.0098267400452063        188.96456778422328     
   288.84363123246419        5.5436153405959576       -3.0114022824469182        191.97597006667019     
   303.76395619520730        5.5423930891815818       -3.0148943474320191        194.99086441410219     
   319.57950065571498        5.5411069605356920       -3.0212977006763739        198.01216211477856     
   336.34397778385312        5.5397493149387476       -3.0319303993717805        201.04409251415035     
   354.11432353967956        5.5383100960534941       -3.0484975517730537        204.09259006592342     
   372.95089004085560        5.5367760935254102       -3.0731562937209103        207.16574635964432     
   392.91765053210219        5.5351300604474636       -3.1085778442020229        210.27432420384633     
   414.08241665282355        5.5333496848701591       -3.1580015179662144        213.43232572181256     
   435.24718277354492        5.5315202331319551       -3.2206046562337933        216.65293037804636     
   456.41194889426629        5.5296280491654972       -3.2975243702361272        219.95045474828248     
   478.84660098223094        5.5275356547969468       -3.3962735837727411        223.34672833205522     
   501.28125307019559        5.5253407061787438       -3.5131330477239464        226.85986137977918     
   525.06198428343816        5.5228806090272249       -3.6581311649899639        230.51799254476913     
   550.26955936947525        5.5201024284319002       -3.8361497805736136        234.35414232534274     
   576.98958896067461        5.5169433388824123       -4.0524725988757009        238.40661492421845     
   605.31282032734589        5.5133295373517592       -4.3127240359270056        242.71933896014545     
   633.63605169401717        5.5094287910358144       -4.6034579089233274        247.32279686906878     
   663.65867694268877        5.5049491420187664       -4.9449327384308264        252.26772960749960     
   695.48265970628063        5.4997908886007671       -5.3427717762286981        257.61050138372832     
   729.21608143568801        5.4938414275439733       -5.8025728565862611        263.41307424031459     
   764.97350846885979        5.4869748887405336       -6.3297665292947976        269.74284076960936     
   802.87638112402192        5.4790520735210428       -6.9294544707575128        276.67229524036685     
   840.77925377918405        5.4704768768434890       -7.5659734077185297        284.23826864808535     
   878.68212643434617        5.4612473479986638       -8.2352238160899134        292.47349246417525     
   918.85917144881807        5.4507333287430182       -8.9765487418008760        301.45004120597611     
   961.44683916415829        5.4387801289955195       -9.7925827215872818        311.24262392756339     
   1006.5897669424189        5.4252242607195189       -10.685151274129989        321.92777520169335     
   1054.4412703873752        5.4098948249594976       -11.655175243823114        333.58295044551647     
   1105.1638640390288        5.3926150576341527       -12.702623945321253        346.28557439083772     
   1155.8864576906824        5.3743577801938098       -13.762522097756198        360.04809648859390     
   1209.6524069614352        5.3539733743918951       -14.893012673295672        374.94110916188959     
   1266.6443131884332        5.3312878526892575       -16.092135989789579        391.03324515167918     
   1323.6362194154312        5.3076053481722845       -17.286134521473198        408.31937967315235     
   1380.6281256424293        5.2830055433423375       -18.470061775311123        426.78944144846349     
   1441.0395462430472        5.2559911900629501       -19.708839597193801        446.49828104565728     
   1505.0756520797022        5.2264069751083770       -20.998976096805524        467.49725714246279     
   1572.9539242665564        5.1941014375788566       -22.336069491942556        489.83332663440535     
   1640.8321964534107        5.1609635745656499       -23.638981419656382        513.47230805406173     
   1708.7104686402649        5.1271008527700790       -24.904811754898500        538.37711980896017     
   1780.6614371583305        5.0905111716717224       -26.202446920661931        564.57956672962212     
   1856.9294637874800        5.0510753060262443       -27.526524269920674        592.10609099954274     
   1937.7735720143785        5.0086816645944117       -28.871443882884872        620.97753488242756     
   2018.6176802412770        4.9658204109022854       -30.158014536515594        651.13554941894313     
   2104.3124349617892        4.9199916840690676       -31.457374686226430        682.59292410516957     
   2195.1488749655323        4.8711029413509781       -32.764316737982618        715.35724084315223     
   2291.4355013694999        4.8190715104433588       -34.073224674557601        749.43046551770988     
   2387.7221277734675        4.7669535956731401       -35.308201211174314        784.73866672888414     
   2489.7859517616735        4.7117395403785691       -36.537330108942299        821.27599683782648     
   2591.8497757498794        4.6566679374956168       -37.689819505230084        858.96581634305653     
   2693.9135997380854        4.6018354373177397       -38.769075942886033        897.73489228594258     
   2802.1012531655833        4.5440793418266452       -39.835054618825190        937.56994690476779     
   2916.7801657987311        4.4833628750670114       -40.883081453759232        978.45302835852704     
   3031.4590784318789        4.4232251821262407       -41.854974542233855        1020.3080029007609     
   3146.1379910650267        4.3637255993722990       -42.755969644861572        1063.0639725456224     
   3267.6976384561635        4.3014270990809900       -43.637433575176296        1106.7014061207988     
   3389.2572858473004        4.2399432463230085       -44.450444641523546        1151.1518507623223     
   3510.8169332384373        4.1793119791744440       -45.199105719329957        1196.3509564816522     
   3632.3765806295742        4.1195621400628246       -45.887764978057518        1242.2387214597097     
   3761.2298068641794        4.0572422817228979       -46.555230142193182        1288.7939516019028     
   3890.0830330987847        3.9959547089423029       -47.164621083334438        1335.9585726852372     
   4026.6674529074662        3.9321582898376248       -47.750900571125271        1383.7094732563623     
   4163.2518727161478        3.8695278749710176       -48.282993745516443        1431.9924670018788     
   4299.8362925248293        3.8080565781674895       -48.765371361597815        1480.7578383634766     
   4444.6157775220317        3.7441833411283687       -49.226091015339016        1529.9839293788157     
   4598.0820316190666        3.6779073677506480       -49.661672161011836        1579.6456015398276     
   4751.5482857161014        3.6130507773443985       -50.047365750062795        1629.6929672898905     
   4905.0145398131363        3.5495924756100519       -50.387779320570544        1680.0807466104611     
   5067.6887691559932        3.4838689295866248       -50.702216435111495        1730.7829630455726     
   5230.3629984988493        3.4196568050853902       -50.974189657213770        1781.7571527027865     
   5402.7976816022774        3.3532547594611657       -51.218538889065996        1832.9756915918524     
   5575.2323647057055        3.2884647189344083       -51.424590221095613        1884.4002818129479     
   5747.6670478091337        3.2252353740833022       -51.596420055574178        1935.9967018685220     
   5930.4478118987672        3.1598935215238093       -51.745859635834101        1987.7425615043560     
   6113.2285759884007        3.0961908328600529       -51.862858073561696        2039.6054195779177     
   6306.9761859234122        3.0304500617028340       -51.954135099689587        2091.5595546776071     
   6500.7237958584237        2.9664383566837746       -52.015484460953779        2143.5750391385609     
   6694.4714057934352        2.9041218542468101       -52.046932680102785        2195.6219718186635     
   6888.2190157284467        2.8434572339358990       -52.051296564547840        2247.6732683832115     
   7081.9666256634582        2.7843648252513709       -52.035585756252090        2299.7088541394637     
   7275.7142355984697        2.7267755490775381       -52.002406406413094        2351.7112605458769     
   7475.7142355984697        2.6688451501355215       -51.953783752786478        2403.6650442986634     
   7675.7142355984697        2.6123907826326724       -51.888568932744654        2455.5536132314082     
   7875.7142355984697        2.5573677317891716       -51.808027939825195        2507.3616411712333     
   8075.7142355984697        2.5036723627164874       -51.721156349614901        2559.0827975208481     
   8275.7142355984688        2.4512767433220906       -51.622579605419595        2610.7053771262676     
   8475.7142355984688        2.4001784891840692       -51.508769210110373        2662.2141463363782     
   8675.7142355984688        2.3503418813154284       -51.383054625647759        2713.5972009620259     
   8875.7142355984688        2.3017092954880982       -51.249572855740460        2764.8467738177665     
   9075.7142355984688        2.2542231641913926       -51.110612317358139        2815.9573861351246     
   9275.7142355984688        2.2078370622043675       -50.966660206202491        2866.9240463413271     
   9475.7142355984688        2.1625391018228610       -50.814438371820472        2917.7384847131475     
   9675.7142355984688        2.1182866615441318       -50.657321207229252        2968.3958059203769     
   9875.7142355984688        2.0750288589430892       -50.497827762225477        3018.8936336826023     
   10075.714235598469        2.0327598837213969       -50.331770923014652        3069.2254046056169     
   10275.714235598469        1.9914714186297586       -50.158578627232814        3119.3839832328495     
   10475.714235598469        1.9511206835130506       -49.982433380050715        3169.3664166129001     
   10675.714235598469        1.9116632039498462       -49.805260763218975        3219.1716773761191     
   10875.714235598469        1.8730625720205225       -49.627468253962036        3268.7991456300811     
   11075.714235598469        1.8352957845774172       -49.448149352564279        3318.2472949826451     
   11275.714235598469        1.7983178131346760       -49.270321389909576        3367.5176163725546     
   11475.714235598469        1.7621115245585255       -49.091804480532666        3416.6094208530872     
   11675.714235598469        1.7266843289318308       -48.909169415338525        3465.5185902684257     
   11875.714235598469        1.6919793130931640       -48.729531881607365        3514.2481221500329     
   12075.714235598469        1.6579882896967928       -48.549045624893147        3562.7971677749260     
   12275.714235598469        1.6247157265426164       -48.365442027593545        3611.1626098025195     
   12475.714235598469        1.5921615063440830       -48.178343107657483        3659.3409529101768     
   12675.714235598469        1.5602833329549344       -47.992847033367205        3707.3337999435439     
   12875.714235598469        1.5290512567870922       -47.809218909042649        3755.1430188525865     
   13075.714235598469        1.4984281994794659       -47.629191610331958        3802.7722104629183     
   13275.714235598469        1.4683581806632962       -47.456320082391358        3850.2285305453097     
   13475.714235598469        1.4387898197242768       -47.291956606034610        3897.5204871513442     
   13675.714235598469        1.4097978879140456       -47.121083535519332        3944.6415706868634     
   13875.714235598469        1.3813779055753621       -46.948687078108087        3991.5902577649713     
   14075.714235598469        1.3534539469649389       -46.784307561181500        4038.3745653261526     
   14275.714235598469        1.3259441181294065       -46.632513249876197        4085.0070785760290     
   14475.714235598469        1.2989253273788117       -46.475807481332104        4131.4828860573607     
   14675.714235598469        1.2724485265874939       -46.311866573386126        4177.7947526307471     
   14875.714235598469        1.2465470078568572       -46.140293542836638        4223.9350461735839     
   15075.714235598469        1.2211727941752604       -45.970344614684947        4269.9053907882690     
   15275.714235598469        1.1962636223913674       -45.806931656079236        4315.7123224443485     
   15475.714235598469        1.1717589015992609       -45.652735465595065        4361.3650579099440     
   15675.714235598469        1.1477108778803560       -45.495297594834526        4406.8603555047785     
   15875.714235598469        1.1241567678099076       -45.332553711960195        4452.1929092167384     
   16075.714235598469        1.1010528908701238       -45.172935092472045        4497.3658443092108     
   16275.714235598469        1.0783069327656174       -45.025322395764441        4542.3911667049751     
   16475.714235598469        1.0558992882195537       -44.884627055564927        4587.2757937605402     
   16675.714235598469        1.0338896038673260       -44.740151088238264        4632.0159448487784     
   16875.714235598469        1.0123117925891110       -44.591049585965258        4676.6069944347437     
