 #              _____________________  _______________________             #
 #              ___  __ \__  __ \_  / / /_  /___  ____/_  ___/             #
 #              __  / / /_  /_/ /  / / /_  __/_  __/  _____ \              #
 #              _  /_/ /_  _, _// /_/ / / /_ _  /___  ____/ /              #
 #              /_____/ /_/ |_| \____/  \__/ /_____/  /____/               #
 #                                                                         #
  
 #        time                      T            heat flux [W.L-2]   in    x              directions   cumulative flux
 #-----------------------------------------------------------------------------------------------

   0.0000000000000000        5.2374000000000001        5.8623517126784694        5.8623517126784694     
   1.0000000000000000        5.2373994049741075        5.8625078366420302        11.724859549320499     
   1.9540000000000002        5.2373988680753945        5.8626446698461123        17.587504219166611     
   2.8641160000000001        5.2373983816911833        5.8627652172695326        23.450269436436145     
   3.8288389600000006        5.2373978927744700        5.8628829304786478        29.313152366914792     
   4.8514452976000007        5.2373974019211422        5.8629977100738540        35.176150076988648     
   5.9354080154560007        5.2373969096620758        5.8631096455558156        41.039259722544465     
   7.0844084963833609        5.2373964164425528        5.8632190865893907        46.902478809133854     
   8.3023490061663630        5.2373959225983961        5.8633267311903268        52.765805540324180     
   9.5933659465363448        5.2373954283278366        5.8634337328519681        58.629239273176147     
   10.961843903328527        5.2373949336578161        5.8635418282655856        64.492781101441736     
   12.412430537528239        5.2373944384031370        5.8636534866142664        70.356434588056004     
   13.950052369779934        5.2373939421164950        5.8637720805187703        76.220206668574775     
   15.579931511966731        5.2373934440272070        5.8639020774156325        82.084108745990406     
   17.307603402684734        5.2373929429661672        5.8640492485701889        87.948157994560589     
   19.138935606845820        5.2373924372744245        5.8642208910134936        93.812378885574077     
   21.080147743256571        5.2373919246928606        5.8644260554962635        99.676804941070344     
   23.137832607851966        5.2373914022305312        5.8646757712321094        105.54148071230246     
   25.318978564323086        5.2373908660096706        5.8649832557799151        111.40646396808238     
   27.630993278182473        5.2373903110858100        5.8653640961923310        117.27182806427471     
   30.081728874873424        5.2373897312420921        5.8658363855824431        123.13766444985716     
   32.679508607365833        5.2373891187573749        5.8664207978891971        129.00408524774636     
   35.433155123807786        5.2373884641480064        5.8671405829450469        134.87122583069140     
   38.352020431236255        5.2373877558828621        5.8680214642085122        140.73924729489991     
   41.446017657110431        5.2373869800700810        5.8690914228111888        146.60833871771109     
   44.725654716537058        5.2373861201113172        5.8703803539574926        152.47871907166859     
   48.202069999529286        5.2373851563150060        5.8719195851620336        158.35063865683063     
   51.887070199501046        5.2373840654534334        5.8737412502185853        164.22437990704921     
   55.793170411471110        5.2373828202390929        5.8758775179985987        170.10025742504780     
   59.933636636159378        5.2373813886837528        5.8783596809443681        175.97861710599216     
   64.322530834328944        5.2373797332888099        5.8812171142838974        181.85983422027604     
   68.974758684388689        5.2373778099987272        5.8844761232541316        187.74431034353017     
   73.626986534448434        5.2373757054524601        5.8879396520437517        193.63224999557391     
   78.558348055511757        5.2373732564798496        5.8918095340160939        199.52405952959001     
   83.785591267838882        5.2373703984082969        5.8960975743224537        205.42015710391246     
   89.326469072905638        5.2373670537004662        5.9008088279718764        211.32096593188433     
   95.199799546276395        5.2373631287918654        5.9059404259958530        217.22690635788018     
   101.42552984804939        5.2373585101506590        5.9114804647031516        223.13838682258333     
   108.02480396792878        5.2373530594604398        5.9174070051662060        229.05579382774954     
   115.02003453500092        5.2373466078520279        5.9236872331614627        234.97948106091101     
   122.43497893609739        5.2373389491493434        5.9302768310178182        240.90975789192882     
   130.29482000125967        5.2373298321469832        5.9371196115126121        246.84687750344142     
   138.62625153033167        5.2373189520019281        5.9441474595603063        252.79102496300172     
   147.45756895114800        5.2373059408956610        5.9512806194950212        258.74230558249673     
   156.81876541721331        5.2372903582013297        5.9584283541543490        264.70073393665109     
   166.74163367124254        5.2372716804675532        5.9654899869312246        270.66622392358232     
   177.25987402051351        5.2372492915992028        5.9723563202006051        276.63858024378294     
   188.40920879074073        5.2372224736693012        5.9789114040221945        282.61749164780514     
   200.22750364718161        5.2371903988283153        5.9850346092396967        288.60252625704481     
   212.04579850362248        5.2371545249035689        5.9903360328482984        294.59286228989311     
   223.86409336006335        5.2371147305297452        5.9948312719932071        300.58769356188634     
   235.68238821650422        5.2370709236780177        5.9985449995388773        306.58623856142520     
   248.20978076433153        5.2370199056813940        6.0016409167484444        312.58787947817365     
   261.48881686502847        5.2369606301980482        6.0040293423255582        318.59190882049921     
   274.76785296572541        5.2368961484424670        6.0055797175846521        324.59748853808389     
   288.84363123246419        5.2368219778807621        6.0063493830445367        330.60383792112845     
   303.76395619520730        5.2367368984261322        6.0062644135289904        336.61010233465743     
   319.57950065571498        5.2366396003639526        6.0052561139366665        342.61535844859407     
   336.34397778385312        5.2365286892892815        6.0032622047392108        348.61862065333327     
   354.11432353967956        5.2364026927782703        6.0002278474273085        354.61884850076058     
   372.95089004085560        5.2362600686470495        5.9961064722215314        360.61495497298210     
   392.91765053210219        5.2360992145679042        5.9908603781924024        366.60581535117450     
   414.08241665282355        5.2359184787339093        5.9844610851571645        372.59027643633169     
   435.24718277354492        5.2357281570773964        5.9773533323708259        378.56762976870255     
   456.41194889426629        5.2355288894052610        5.9696509834872362        384.53728075218976     
   478.84660098223094        5.2353083578517410        5.9609356910052105        390.49821644319496     
   501.28125307019559        5.2350792357708595        5.9517705761467221        396.44998701934168     
   525.06198428343816        5.2348275271240752        5.9416523980848375        402.39163941742652     
   550.26955936947525        5.2345516944401735        5.9305763734349108        408.32221579086143     
   576.98958896067461        5.2342501821120182        5.9185424890342455        414.24075827989566     
   605.31282032734589        5.2339214218246735        5.9055549891582020        420.14631326905385     
   633.63605169401717        5.2335845089931929        5.8924154793762904        426.03872874843012     
   663.65867694268877        5.2332193018274014        5.8783924961689014        431.91712124459900     
   695.48265970628063        5.2328242543073840        5.8634919084056394        437.78061315300465     
   729.21608143568801        5.2323978077924806        5.8477209932906442        443.62833414629529     
   764.97350846885979        5.2319383900751024        5.8310875444575370        449.45942169075283     
   802.87638112402192        5.2314444126309043        5.8135988752255292        455.27302056597836     
   840.77925377918405        5.2309445652924840        5.7962867583927924        461.06930732437115     
   878.68212643434617        5.2304398171749389        5.7791733849670868        466.84848070933822     
   918.85917144881807        5.2299002617384982        5.7612718208729969        472.60975253021121     
   961.44683916415829        5.2293242396896451        5.7425719959917831        478.35232452620301     
   1006.5897669424189        5.2287100371709521        5.7230596122680808        484.07538413847107     
   1054.4412703873752        5.2280558747430561        5.7027148185873280        489.77809895705838     
   1105.1638640390288        5.2273598932909273        5.6815106702195308        495.45960962727793     
   1155.8864576906824        5.2266620819771861        5.6606437393570763        501.12025336663498     
   1209.6524069614352        5.2259210341010363        5.6388704856173488        506.75912385225234     
   1266.6443131884332        5.2251346037428750        5.6161359995418758        512.37525985179423     
   1323.6362194154312        5.2243477006525847        5.5937009463002072        517.96896079809449     
   1380.6281256424293        5.2235606257805527        5.5715178678532453        523.54047866594772     
   1441.0395462430472        5.2227263323711384        5.5482287511902397        529.08870741713793     
   1505.0756520797022        5.2218420480745227        5.5237239766166981        534.61243139375460     
   1572.9539242665564        5.2209046532350065        5.4978662750409528        540.11029766879551     
   1640.8321964534107        5.2199668933969274        5.4720369502422956        545.58233461903785     
   1708.7104686402649        5.2190282863283848        5.4461447590166800        551.02847937805450     
   1780.6614371583305        5.2180316334665289        5.4185168699441730        556.44699624799864     
   1856.9294637874800        5.2169720695294295        5.3888903764336273        561.83588662443231     
   1937.7735720143785        5.2158437529554540        5.3569372076387900        567.19282383207110     
   2018.6176802412770        5.2147083016132330        5.3242660686779955        572.51708990074906     
   2104.3124349617892        5.2134940553927667        5.2886246970212918        577.80571459777036     
   2195.1488749655323        5.2121914403356113        5.2494676821935347        583.05518227996390     
   2291.4355013694999        5.2107886215709813        5.2061282725835927        588.26131055254746     
   2387.7221277734675        5.2093587858765158        5.1606768224644091        593.42198737501189     
   2489.7859517616735        5.2078065200649721        5.1098054781277567        598.53179285313968     
   2591.8497757498794        5.2062110531535088        5.0559382540613722        603.58773110720108     
   2693.9135997380854        5.2045656342144220        4.9987921431355558        608.58652325033665     
   2802.1012531655833        5.2027571988673351        4.9342250396747938        613.52074829001140     
   2916.7801657987311        5.2007582838778941        4.8609715040717241        618.38171979408310     
   3031.4590784318789        5.1986677843585856        4.7826212618373676        623.16434105592043     
   3146.1379910650267        5.1964763369628493        4.6989335272377328        627.86327458315816     
   3267.6976384561635        5.1940292822017282        4.6039954549094402        632.46727003806757     
   3389.2572858473004        5.1914479900093369        4.5026501167579154        636.96992015482545     
   3510.8169332384373        5.1887230223502581        4.3947707671872820        641.36469092201276     
   3632.3765806295742        5.1858456991983557        4.2802791464344718        645.64497006844726     
   3761.2298068641794        5.1826152465465665        4.1514517835152969        649.79642185196258     
   3890.0830330987847        5.1791960867679538        4.0151728607889767        653.81159471275157     
   4026.6674529074662        5.1753513677557930        3.8624197906193003        657.67401450337093     
   4163.2518727161478        5.1712792777985710        3.7014949809269453        661.37550948429782     
   4299.8362925248293        5.1669742573558199        3.5325676058058559        664.90807709010369     
   4444.6157775220317        5.1621443151004494        3.3447604336047840        668.25283752370842     
   4598.0820316190666        5.1567212444518500        3.1362018939047576        671.38903941761316     
   4751.5482857161014        5.1509930461731184        2.9185396326960400        674.30757905030919     
   4905.0145398131363        5.1449597514646879        2.6921811657160970        676.99976021602527     
   5067.6887691559932        5.1382238020496267        2.4429808014761081        679.44274101750136     
   5230.3629984988493        5.1311512559414787        2.1850471925916093        681.62778821009294     
   5402.7976816022774        5.1232831338936311        1.9024634502670486        683.53025166036002     
   5575.2323647057055        5.1150526400564438        1.6113467296148414        685.14159838997489     
   5747.6670478091337        5.1064702431733089        1.3123339930786306        686.45393238305348     
   5930.4478118987672        5.0969916888548408       0.98725477336448719        687.44118715641798     
   6113.2285759884007        5.0871475150219245       0.65477819496998246        688.09596535138792     
   6306.9761859234122        5.0763218643265358       0.29488038909850250        688.39084574048638     
   6500.7237958584237        5.0651264479956311       -7.1683547788332122E-002   688.46252928827471     
   6694.4714057934352        5.0535830918385720      -0.44414208882037154        688.90667137709511     
   6888.2190157284467        5.0417141186308161      -0.82176049177692556        689.72843186887201     
   7081.9666256634582        5.0295421137616874       -1.2038415588008133        690.93227342767284     
   7275.7142355984697        5.0170897226036431       -1.5897256786020604        692.52199910627485     
   7475.7142355984697        5.0039614815738513       -1.9914318254638590        694.51343093173875     
   7675.7142355984697        4.9905837054513018       -2.3958654139203612        696.90929634565907     
   7875.7142355984697        4.9769804067297372       -2.8024252944144998        699.71172164007362     
   8075.7142355984697        4.9631750228145375       -3.2105498203425666        702.92227146041614     
   8275.7142355984688        4.9491903153052572       -3.6197156745835923        706.54198713499977     
   8475.7142355984688        4.9350482903520616       -4.0294364016705826        710.57142353667041     
   8675.7142355984688        4.9207701362168184       -4.4392608235200450        715.01068436019045     
   8875.7142355984688        4.9063761787975730       -4.8487711598041479        719.85945551999464     
   9075.7142355984688        4.8918858526809892       -5.2575810284767570        725.11703654847145     
   9275.7142355984688        4.8773176837800065       -5.6653335588151803        730.78237010728662     
   9475.7142355984688        4.8626892845017577       -6.0716994753237925        736.85406958261046     
   9675.7142355984688        4.8480173537456919       -6.4763755165465726        743.33044509915703     
   9875.7142355984688        4.8333176868889733       -6.8790827555288399        750.20952785468592     
   10075.714235598469        4.8186051889502046       -7.2795651522908473        757.48909300697676     
   10275.714235598469        4.8038938925389365       -7.6775881252233518        765.16668113220010     
   10475.714235598469        4.7891969812128377       -8.0729370665628419        773.23961819876297     
   10675.714235598469        4.7745268165352517       -8.4654158990713952        781.70503409783441     
   10875.714235598469        4.7598949662922401       -8.8548458048797549        790.55987990271421     
   11075.714235598469        4.7453122336021032       -9.2410641184604767        799.80094402117470     
   11275.714235598469        4.7307886874992153       -9.6239233346437452        809.42486735581849     
   11475.714235598469        4.7163336917069065       -10.003290316020694        819.42815767183913     
   11675.714235598469        4.7019559328160323       -10.379045555257669        829.80720322709681     
   11875.714235598469        4.6876634498672427       -10.751082377106924        840.55828560420377     
   12075.714235598469        4.6734636608319962       -11.119306233093786        851.67759183729754     
   12275.714235598469        4.6593633924636633       -11.483633857285197        863.16122569458275     
   12475.714235598469        4.6453689088904779       -11.843992428576197        875.00521812315890     
   12675.714235598469        4.6314859428696895       -12.200318626427761        887.20553674958671     
   12875.714235598469        4.6177197241809242       -12.552557808477195        899.75809455806393     
   13075.714235598469        4.6040750104078105       -12.900663232334814        912.65875779039879     
   13275.714235598469        4.5905561139576783       -13.244595560534249        925.90335335093300     
   13475.714235598469        4.5771669258213272       -13.584322648321807        939.48767599925486     
   13675.714235598469        4.5639109353633103       -13.919819511740240        953.40749551099509     
   13875.714235598469        4.5507912495490057       -14.251068189385540        967.65856370038068     
   14075.714235598469        4.5378106089154118       -14.578057473833713        982.23662117421441     
   14275.714235598469        4.5249714064389366       -14.900782507623516        997.13740368183790     
   14475.714235598469        4.5122757039303165       -15.219244463737574        1012.3566481455755     
   14675.714235598469        4.4997252497137588       -15.533450140564174        1027.8900982861396     
   14875.714235598469        4.4873214967037924       -15.843411314789741        1043.7335096009294     
   15075.714235598469        4.4750656239993862       -16.149143771233994        1059.8826533721635     
   15275.714235598469        4.4629585627168007       -16.450666211779460        1076.3333195839430     
   15475.714235598469        4.4510010208829911       -16.747999436192931        1093.0813190201359     
   15675.714235598469        4.4391935059397216       -17.041165935827276        1110.1224849559630     
   15875.714235598469        4.4275363437511359       -17.330189766871879        1127.4526747228349     
   16075.714235598469        4.4160296949658893       -17.615096482748481        1145.0677712055833     
   16275.714235598469        4.4046735692053502       -17.895913097517639        1162.9636843031010     
   16475.714235598469        4.3934678364031354       -18.172668197501881        1181.1363525006029     
   16675.714235598469        4.3824122349312740       -18.445392196844626        1199.5817446974474     
   16875.714235598469        4.3715063777555931       -18.714117538227018        1218.2958622356746     
