 #              _____________________  _______________________             #
 #              ___  __ \__  __ \_  / / /_  /___  ____/_  ___/             #
 #              __  / / /_  /_/ /  / / /_  __/_  __/  _____ \              #
 #              _  /_/ /_  _, _// /_/ / / /_ _  /___  ____/ /              #
 #              /_____/ /_/ |_| \____/  \__/ /_____/  /____/               #
 #                                                                         #
  
 #        time                      T            heat flux [W.L-2]   in    x              directions   cumulative flux
 #-----------------------------------------------------------------------------------------------

   0.0000000000000000        5.4707999999999997       0.83978018327393922       0.83978018327393922     
   1.0000000000000000        5.4701489956912415        1.0097720618602617        1.8495522451342010     
   1.9540000000000002        5.4695614328512780        1.1586883853307435        3.0082406304649445     
   2.8641160000000001        5.4690290179903007        1.2897355355741675        4.2979761660391116     
   3.8288389600000006        5.4684936939143318        1.4173905746948607        5.7153667407339723     
   4.8514452976000007        5.4679561166333484        1.5412652708851675        7.2566320116191401     
   5.9354080154560007        5.4674168857133747        1.6610041796484529        8.9176361912675937     
   7.0844084963833609        5.4668765314244743        1.7762907518846227        10.693926943152217     
   8.3023490061663630        5.4663355028311464        1.8868528968723477        12.580779840024565     
   9.5933659465363448        5.4657941572649342        1.9924677968494304        14.573247636873996     
   10.961843903328527        5.4652527516084310        2.0929657804402617        16.666213417314257     
   12.412430537528239        5.4647114357871605        2.1882330834172001        18.854446500731456     
   13.950052369779934        5.4641702488097943        2.2782133573552201        21.132659858086676     
   15.579931511966731        5.4636291176183942        2.3629078289906902        23.495567687077365     
   17.307603402684734        5.4630878589108534        2.4423740639854850        25.937941751062851     
   19.138935606845820        5.4625461839815426        2.5167233459330345        28.454665096995885     
   21.080147743256571        5.4620037064989351        2.5861167416471895        31.040781838643074     
   23.137832607851966        5.4614599530080650        2.6507599832206470        33.691541821863723     
   25.318978564323086        5.4609143758191276        2.7108973519530037        36.402439173816724     
   27.630993278182473        5.4603663678300434        2.7668047949310774        39.169243968747800     
   30.081728874873424        5.4598152787385263        2.8187825382105514        41.988026506958349     
   32.679508607365833        5.4592604320350056        2.8671474784387043        44.855173985397052     
   35.433155123807786        5.4587011421366869        2.9122256358320797        47.767399621229131     
   38.352020431236255        5.4581367310273672        2.9543449355725389        50.721744556801667     
   41.446017657110431        5.4575665438068306        2.9938285533665145        53.715573110168179     
   44.725654716537058        5.4569899626242417        3.0309890168707718        56.746562127038949     
   48.202069999529286        5.4564064185658232        3.0661232019340412        59.812685328972989     
   51.887070199501046        5.4558154011803692        3.0995083056456205        62.912193634618610     
   55.793170411471110        5.4552164654475934        3.1313988218298965        66.043592456448508     
   59.933636636159378        5.4546092361150906        3.1620244931268746        69.205616949575386     
   64.322530834328944        5.4539934094414813        3.1915891706956914        72.397206120271079     
   68.974758684388689        5.4533687524796939        3.2202704800892152        75.617476600360291     
   73.626986534448434        5.4527695788799466        3.2467484827904136        78.864225083150700     
   78.558348055511757        5.4521604539596504        3.2727483058074873        82.136973388958182     
   83.785591267838882        5.4515413479488020        3.2983539589006394        85.435327347858816     
   89.326469072905638        5.4509122728452546        3.3236324885943822        88.758959836453201     
   95.199799546276395        5.4502732760474508        3.3486349053242024        92.107594741777405     
   101.42552984804939        5.4496244330349972        3.3733972834742523        95.480992025251652     
   108.02480396792878        5.4489658393061209        3.3979419730925495        98.878933998344195     
   115.02003453500092        5.4482976017713050        3.4222788728751521        102.30121287121935     
   122.43497893609739        5.4476198297876444        3.4464067249369537        105.74761959615630     
   130.29482000125967        5.4469326260002173        3.4703144021217800        109.21793399827808     
   138.62625153033167        5.4462360771366862        3.4939821674325398        112.71191616571062     
   147.45756895114800        5.4455302448798557        3.5173828923138295        116.22929905802445     
   156.81876541721331        5.4448151569208783        3.5404832257026588        119.76978228372711     
   166.74163367124254        5.4440907982729323        3.5632447090431612        123.33302699277027     
   177.25987402051351        5.4433571029015759        3.5856248340245895        126.91865182679486     
   188.40920879074073        5.4426139457034619        3.6075780398250386        130.52622986661990     
   200.22750364718161        5.4418611348396313        3.6290566456043321        134.15528651222422     
   212.04579850362248        5.4411398719196402        3.6489135085330955        137.80420002075732     
   223.86409336006335        5.4404471956784057        3.6672970555483064        141.47149707630564     
   235.68238821650422        5.4397805055563140        3.6843378296820348        145.15583490598766     
   248.20978076433153        5.4391002988325816        3.7010289997980625        148.85686390578573     
   261.48881686502847        5.4384062144804322        3.7173229669628975        152.57418687274864     
   274.76785296572541        5.4377365865268867        3.7323444359852904        156.30653130873392     
   288.84363123246419        5.4370516759111345        3.7469697262218178        160.05350103495573     
   303.76395619520730        5.4363509550767120        3.7611530530866935        163.81465408804243     
   319.57950065571498        5.4356338124060448        3.7748490141719659        167.58950310221439     
   336.34397778385312        5.4348995440317607        3.7880127113064375        171.37751581352083     
   354.11432353967956        5.4341473451601061        3.8005997974525099        175.17811561097335     
   372.95089004085560        5.4333763008286660        3.8125664392693421        178.99068205024270     
   392.91765053210219        5.4325853760176877        3.8238691889856860        182.81455123922839     
   414.08241665282355        5.4317734050359743        3.8344647628763542        186.64901600210476     
   435.24718277354492        5.4309850433471265        3.8438190843636826        190.49283508646843     
   456.41194889426629        5.4302178536662158        3.8520566640393570        194.34489175050780     
   478.84660098223094        5.4294259005840235        3.8596613355730751        198.20455308608086     
   501.28125307019559        5.4286530152601440        3.8662490770010089        202.07080216308188     
   525.06198428343816        5.4278528997879274        3.8722024299360776        205.94300459301795     
   550.26955936947525        5.4270239263437041        3.8774714089407296        209.82047600195867     
   576.98958896067461        5.4261642950142370        3.8820035613678434        213.70247956332651     
   605.31282032734589        5.4252720181759360        3.8857435102833473        217.58822307360984     
   633.63605169401717        5.4243964965707052        3.8885211108915385        221.47674418450137     
   663.65867694268877        5.4234850233744361        3.8904873831190745        225.36723156762045     
   695.48265970628063        5.4225351783366467        3.8915771479623125        229.25880871558277     
   729.21608143568801        5.4215443005624220        3.8917197214957806        233.15052843707855     
   764.97350846885979        5.4205094640988793        3.8908374856513142        237.04136592272985     
   802.87638112402192        5.4194274482920779        3.8888438072723415        240.93020973000219     
   840.77925377918405        5.4183581737018489        3.8858755706039485        244.81608530060615     
   878.68212643434617        5.4172997373990235        3.8820004324921804        248.69808573309834     
   918.85917144881807        5.4161879747974933        3.8769361627899226        252.57502189588826     
   961.44683916415829        5.4150188283694511        3.8705468924525790        256.44556878834084     
   1006.5897669424189        5.4137877366693274        3.8626674887034507        260.30823627704427     
   1054.4412703873752        5.4124895175741576        3.8530934147272697        264.16132969177153     
   1105.1638640390288        5.4111182100100814        3.8415675438205277        268.00289723559206     
   1155.8864576906824        5.4097490499617322        3.8286329319931580        271.83153016758524     
   1209.6524069614352        5.4082970459340993        3.8132722412315840        275.64480240881682     
   1266.6443131884332        5.4067534336078040        3.7950241894016630        279.43982659821847     
   1323.6362194154312        5.4052015626410634        3.7746725881161942        283.21449918633465     
   1380.6281256424293        5.4036375638935130        3.7520592447728331        286.96655843110750     
   1441.0395462430472        5.4019613410963174        3.7253410601598884        290.69189949126741     
   1505.0756520797022        5.4001580273274072        3.6936719829846214        294.38557147425200     
   1572.9539242665564        5.3982095116132225        3.6560251913185580        298.04159666557058     
   1640.8321964534107        5.3962165974473084        3.6139886412555433        301.65558530682614     
   1708.7104686402649        5.3941717558338329        3.5672624679357936        305.22284777476193     
   1780.6614371583305        5.3919368256812330        3.5121311942869817        308.73497896904894     
   1856.9294637874800        5.3894813008143334        3.4470434144440110        312.18202238349295     
   1937.7735720143785        5.3867685979092368        3.3702182319175309        315.55224061541048     
   2018.6176802412770        5.3839337118979369        3.2852656350472356        318.83750625045769     
   2104.3124349617892        5.3807773363754183        3.1858196412038815        322.02332589166156     
   2195.1488749655323        5.3772455987208092        3.0696448865209418        325.09297077818252     
   2291.4355013694999        5.3732754846923818        2.9342982327549256        328.02726901093746     
   2387.7221277734675        5.3690629494050750        2.7867662663641459        330.81403527730163     
   2489.7859517616735        5.3643083864486574        2.6168529342697346        333.43088821157136     
   2591.8497757498794        5.3592498364466952        2.4336977250575442        335.86458593662888     
   2693.9135997380854        5.3538747865113052        2.2376957687935146        338.10228170542240     
   2802.1012531655833        5.3478094486876344        2.0160817893417824        340.11836349476420     
   2916.7801657987311        5.3409557934384466        1.7664125940921278        341.88477608885631     
   3031.4590784318789        5.3336697506975828        1.5028748761543032        343.38765096501061     
   3146.1379910650267        5.3259462857645739        1.2264179475850079        344.61406891259560     
   3267.6976384561635        5.3172653500410227       0.92003449676701277        345.53410340936261     
   3389.2572858473004        5.3080908696548583       0.60151055637603468        346.13561396573863     
   3510.8169332384373        5.2984261246494118       0.27204570328014438        346.40765966901876     
   3632.3765806295742        5.2882768296099414       -6.7176461116389294E-002   346.47483613013515     
   3761.2298068641794        5.2769835982079361      -0.43634320757753015        346.91117933771267     
   3890.0830330987847        5.2651671154224857      -0.81377981384798204        347.72495915156065     
   4026.6674529074662        5.2520700619441198       -1.2216579070628830        348.94661705862353     
   4163.2518727161478        5.2384197105154797       -1.6359197540960220        350.58253681271952     
   4299.8362925248293        5.2242358921424552       -2.0552447199904718        352.63778153270999     
   4444.6157775220317        5.2086267473530921       -2.5039638316393771        355.14174536434939     
   4598.0820316190666        5.1914670097534108       -2.9827824286743052        358.12452779302367     
   4751.5482857161014        5.1737253347097605       -3.4633434022473057        361.58787119527096     
   4905.0145398131363        5.1554343064740760       -3.9443555152215315        365.53222671049252     
   5067.6887691559932        5.1354675420528926       -4.4533679640489092        369.98559467454146     
   5230.3629984988493        5.1149613046564681       -4.9603113846115772        374.94590605915306     
   5402.7976816022774        5.0926641537959547       -5.4940929696849787        380.43999902883803     
   5575.2323647057055        5.0698511848587788       -6.0232115985403931        386.46321062737843     
   5747.6670478091337        5.0465659930032087       -6.5467380879044823        393.00994871528292     
   5930.4478118987672        5.0214033522518946       -7.0944646870981263        400.10441340238106     
   6113.2285759884007        4.9958087750771707       -7.6342119872032983        407.73862538958434     
   6306.9761859234122        4.9682483321329247       -8.1966452669874652        415.93527065657179     
   6500.7237958584237        4.9403102280269984       -8.7488033674744106        424.68407402404620     
   6694.4714057934352        4.9120443568110019       -9.2902458265113097        433.97431985055749     
   6888.2190157284467        4.8834980015856075       -9.8206467157175030        443.79496656627498     
   7081.9666256634582        4.8547158836480175       -10.339777600031709        454.13474416630669     
   7275.7142355984697        4.8257402132640550       -10.847495039222069        464.98223920552874     
   7475.7142355984697        4.7956668488264844       -11.359363696213457        476.34160290174219     
   7675.7142355984697        4.7654717259263206       -11.859003684062344        488.20060658580451     
   7875.7142355984697        4.7351930294689959       -12.346484591429089        500.54709117723360     
   8075.7142355984697        4.7048663446470496       -12.821931508689200        513.36902268592280     
   8275.7142355984688        4.6745247401831627       -13.285516761925081        526.65453944784792     
   8475.7142355984688        4.6441988941456049       -13.737448720076788        540.39198816792475     
   8675.7142355984688        4.6139172422028967       -14.177959986110537        554.56994815403527     
   8875.7142355984688        4.5837061361072067       -14.607298477331550        569.17724663136687     
   9075.7142355984688        4.5535899786958609       -15.025723149983218        584.20296978135013     
   9275.7142355984688        4.5235913245979429       -15.433502720772694        599.63647250212284     
   9475.7142355984688        4.4937309842513731       -15.830913269400604        615.46738577152348     
   9675.7142355984688        4.4640281149487606       -16.218235305197599        631.68562107672108     
   9875.7142355984688        4.4345003199532913       -16.595751633437814        648.28137271015885     
   10075.714235598469        4.4051637378628641       -16.963745028790782        665.24511773894960     
   10275.714235598469        4.3760331456462858       -17.322494352927439        682.56761209187709     
   10475.714235598469        4.3471220667253405       -17.672271502213782        700.23988359409088     
   10675.714235598469        4.3184428604111433       -18.013341126179945        718.25322472027085     
   10875.714235598469        4.2900067834189448       -18.345962359013853        736.59918707928466     
   11075.714235598469        4.2618240378802437       -18.670390357398794        755.26957743668345     
   11275.714235598469        4.2339038140919554       -18.986877609022283        774.25645504570571     
   11475.714235598469        4.2062543299637660       -19.295674267579553        793.55212931328526     
   11675.714235598469        4.1788828887470473       -19.597025850096145        813.14915516338147     
   11875.714235598469        4.1517959446140500       -19.891171575141229        833.04032673852271     
   12075.714235598469        4.1249991581349388       -20.178343681958584        853.21867042048132     
   12275.714235598469        4.0984974640204914       -20.458765814045766        873.67743623452714     
   12475.714235598469        4.0722951480313272       -20.732650175477747        894.41008641000485     
   12675.714235598469        4.0463959212793945       -21.000196552762532        915.41028296276738     
   12875.714235598469        4.0208029649290413       -21.261594229654104        936.67187719242145     
   13075.714235598469        3.9955189512632865       -21.517025846617855        958.18890303903936     
   13275.714235598469        3.9705460318736199       -21.766672650503203        979.95557568954257     
   13475.714235598469        3.9458858014938807       -22.010720147759010        1001.9662958373016     
   13675.714235598469        3.9215392949489853       -22.249356815532593        1024.2156526528343     
   13875.714235598469        3.8975070444846152       -22.482767147572829        1046.6984198004070     
   14075.714235598469        3.8737891418122690       -22.711128104737707        1069.4095479051448     
   14275.714235598469        3.8503852550860218       -22.934613318332566        1092.3441612234774     
   14475.714235598469        3.8272946354069814       -23.153394950054473        1115.4975561735318     
   14675.714235598469        3.8045161778057137       -23.367637679549819        1138.8651938530816     
   14875.714235598469        3.7820485415202132       -23.577488570490683        1162.4426824235723     
   15075.714235598469        3.7598902713906375       -23.783072064473117        1186.2257544880454     
   15275.714235598469        3.7380398574698317       -23.984494301563906        1210.2102487896093     
   15475.714235598469        3.7164957087769643       -24.181854079021960        1234.3921028686314     
   15675.714235598469        3.6952561038526928       -24.375249854248619        1258.7673527228799     
   15875.714235598469        3.6743191830499735       -24.564778258922388        1283.3321309818023     
   16075.714235598469        3.6536829723526756       -24.750530836635150        1308.0826618184374     
   16275.714235598469        3.6333453772356004       -24.932597113076842        1333.0152589315142     
   16475.714235598469        3.6133041333653644       -25.111071263567510        1358.1263301950817     
   16675.714235598469        3.5935567727103521       -25.286053162972994        1383.4123833580547     
   16875.714235598469        3.5741006501562573       -25.457642075396151        1408.8700254334508     
